Time Elapsed (s),Fx (N),Fy (N),Fz (N),Tx (Nm),Ty (Nm),Tz (Nm)
0.003999948501586914,-4.41946,-0.815549,-14.047949,0.053223,-0.02749,0.080426
0.018999814987182617,-4.203545,-0.799755,-14.027047,0.052859,-0.0237,0.080146
0.019999980926513672,-4.180342,-0.788294,-14.018763,0.052445,-0.023323,0.08076
0.023999929428100586,-4.142788,-0.755917,-13.986701,0.051902,-0.022906,0.081832
0.0279998779296875,-4.11356,-0.727925,-13.983213,0.051342,-0.023256,0.082775
0.03399991989135742,-4.061504,-0.707468,-13.934254,0.050292,-0.02345,0.084851
0.037999868392944336,-4.04623,-0.654305,-13.918672,0.049174,-0.023914,0.08547
0.04199981689453125,-4.078262,-0.629342,-13.913922,0.048314,-0.02425,0.085675
0.046000003814697266,-4.150517,-0.625392,-13.911078,0.048645,-0.025524,0.086393
0.04999995231628418,-4.23532,-0.627892,-13.885659,0.048776,-0.027612,0.086517
0.053999900817871094,-4.332589,-0.632211,-13.885981,0.049289,-0.029956,0.086727
0.05799984931945801,-4.424251,-0.631199,-13.886476,0.049542,-0.031784,0.086673
0.06199979782104492,-4.530571,-0.640199,-13.864972,0.050056,-0.032984,0.086819
0.06599998474121094,-4.58969,-0.657043,-13.829165,0.050384,-0.034782,0.085357
0.0690000057220459,-4.616205,-0.685515,-13.822805,0.051239,-0.035537,0.084708
0.07299995422363281,-4.645118,-0.705984,-13.78929,0.051426,-0.035284,0.083521
0.07999992370605469,-4.587072,-0.736065,-13.764114,0.052308,-0.034028,0.081704
0.0839998722076416,-4.507719,-0.791775,-13.739966,0.052004,-0.032207,0.080546
0.08799982070922852,-4.410336,-0.814622,-13.734716,0.053532,-0.030049,0.081082
0.09200000762939453,-4.318903,-0.864806,-13.712537,0.053604,-0.027877,0.079997
0.09599995613098145,-4.229864,-0.870594,-13.67983,0.054,-0.026154,0.079515
0.09999990463256836,-4.150714,-0.894048,-13.66068,0.054098,-0.025019,0.079215
0.10399985313415527,-4.094072,-0.892551,-13.596106,0.054169,-0.024524,0.079285
0.10799980163574219,-4.081572,-0.914746,-13.566383,0.054195,-0.024199,0.080657
0.11099982261657715,-4.103195,-0.927589,-13.543132,0.054152,-0.024297,0.081393
0.11500000953674316,-4.163213,-0.943881,-13.544973,0.054744,-0.025471,0.082608
0.11899995803833008,-4.247166,-0.961799,-13.543706,0.055205,-0.028115,0.084404
0.12299990653991699,-4.336161,-0.988395,-13.566249,0.056083,-0.029739,0.085382
0.12999987602233887,-4.433919,-1.018768,-13.597927,0.056824,-0.030841,0.085169
0.13399982452392578,-4.474701,-1.037833,-13.604824,0.057543,-0.030648,0.084849
0.1380000114440918,-4.516613,-1.059599,-13.618572,0.058056,-0.031246,0.083617
0.1419999599456787,-4.531964,-1.090339,-13.607001,0.058531,-0.030986,0.082724
0.14599990844726562,-4.541487,-1.104183,-13.588263,0.059234,-0.030235,0.081945
0.14999985694885254,-4.513012,-1.130098,-13.547054,0.059381,-0.02997,0.081274
0.1529998779296875,-4.486888,-1.134162,-13.540592,0.059683,-0.02987,0.08149
0.15699982643127441,-4.440572,-1.140907,-13.551224,0.05895,-0.028648,0.08105
0.16099977493286133,-4.393776,-1.141946,-13.547338,0.05921,-0.027903,0.080615
0.16499996185302734,-4.340086,-1.122606,-13.600651,0.058281,-0.026365,0.080828
0.16899991035461426,-4.286925,-1.098386,-13.605209,0.05836,-0.025462,0.080765
0.17299985885620117,-4.25051,-1.082749,-13.628867,0.057488,-0.024417,0.080436
0.17999982833862305,-4.203018,-0.994806,-13.627397,0.055505,-0.023408,0.081273
0.18399977684020996,-4.175419,-0.951113,-13.631864,0.054564,-0.023562,0.080932
0.18799996376037598,-4.184147,-0.894592,-13.645219,0.052948,-0.02328,0.080909
0.1919999122619629,-4.219877,-0.844126,-13.662175,0.052118,-0.023397,0.081003
0.19499993324279785,-4.237278,-0.797642,-13.705374,0.05136,-0.024194,0.081369
0.19899988174438477,-4.244443,-0.791477,-13.731351,0.050542,-0.024657,0.081928
0.20299983024597168,-4.247074,-0.786628,-13.754917,0.050253,-0.025909,0.081936
0.2069997787475586,-4.265935,-0.773055,-13.770514,0.050268,-0.025584,0.083032
0.2109999656677246,-4.268407,-0.792299,-13.824101,0.05126,-0.025757,0.083698
0.21499991416931152,-4.270769,-0.814689,-13.839258,0.051466,-0.02643,0.083996
0.21899986267089844,-4.272477,-0.84876,-13.865836,0.052517,-0.026512,0.083317
0.22499990463256836,-4.249545,-0.916104,-13.91889,0.053758,-0.026402,0.083952
0.22899985313415527,-4.209832,-0.953338,-13.959672,0.055084,-0.025615,0.08456
0.23399996757507324,-4.163147,-1.005662,-13.999422,0.056165,-0.02582,0.085396
0.2369999885559082,-4.137805,-1.027112,-14.035402,0.056402,-0.025324,0.08612
0.24099993705749512,-4.078859,-1.025833,-14.062016,0.056998,-0.023608,0.085653
0.24499988555908203,-3.999388,-1.020862,-14.075326,0.056772,-0.023455,0.085687
0.24899983406066895,-3.940857,-0.996004,-14.097936,0.056362,-0.021427,0.084916
0.25299978256225586,-3.9052,-0.977934,-14.115818,0.056218,-0.020786,0.084945
0.2569999694824219,-3.840259,-0.938354,-14.099583,0.055554,-0.019955,0.084609
0.2609999179840088,-3.808283,-0.884032,-14.148137,0.054811,-0.019201,0.084326
0.2649998664855957,-3.800009,-0.851677,-14.155977,0.053846,-0.019954,0.083686
0.2689998149871826,-3.831913,-0.82821,-14.176211,0.053012,-0.02015,0.083327
0.27499985694885254,-3.945194,-0.815791,-14.206782,0.052897,-0.022067,0.083767
0.2779998779296875,-4.01198,-0.808971,-14.21498,0.053124,-0.023177,0.084099
0.2819998264312744,-4.09445,-0.803858,-14.192514,0.053518,-0.024633,0.084417
0.2869999408721924,-4.154498,-0.810571,-14.171407,0.053597,-0.02567,0.085102
0.2909998893737793,-4.17431,-0.859214,-14.168952,0.054303,-0.025898,0.085692
0.2949998378753662,-4.188394,-0.871015,-14.164204,0.054998,-0.025337,0.086516
0.2989997863769531,-4.140349,-0.880423,-14.171849,0.055853,-0.025209,0.085974
0.30299997329711914,-4.09839,-0.877218,-14.198857,0.055974,-0.024463,0.086863
0.30699992179870605,-4.048339,-0.874084,-14.227989,0.05586,-0.023415,0.085577
0.31099987030029297,-3.975727,-0.871728,-14.265151,0.055145,-0.022306,0.085648
0.3149998188018799,-3.901257,-0.826994,-14.325113,0.055261,-0.021512,0.085404
0.31999993324279785,-3.836438,-0.823903,-14.389775,0.05399,-0.019949,0.085493
0.32399988174438477,-3.77405,-0.793494,-14.460286,0.053879,-0.019152,0.085414
0.32899999618530273,-3.754231,-0.76269,-14.470929,0.053392,-0.018932,0.085206
0.33299994468688965,-3.77738,-0.762603,-14.483518,0.053174,-0.019756,0.085496
0.33699989318847656,-3.834806,-0.736528,-14.463238,0.05297,-0.020434,0.085583
0.3409998416900635,-3.90764,-0.731725,-14.439076,0.052956,-0.022351,0.08576
0.3449997901916504,-3.989719,-0.741759,-14.386905,0.053207,-0.023735,0.085092
0.3489999771118164,-4.892898,-0.751395,-14.599833,0.04224,0.059066,0.090941
0.3529999256134033,-6.224798,-0.239932,-15.156639,0.023174,0.50905,0.125709
0.35699987411499023,-3.603764,-0.256076,-15.296096,0.024038,0.426709,0.123788
0.3619999885559082,-2.447728,-0.655783,-15.843656,0.042579,0.235808,0.088702
0.3659999370574951,-2.555534,-0.58852,-16.003592,0.040601,0.161211,0.082792
0.36999988555908203,-2.390056,-0.563523,-15.425976,0.040596,0.13032,0.089956
0.37399983406066895,-2.829638,-0.772058,-14.765033,0.047057,0.184714,0.093612
0.37799978256225586,-3.335512,-0.799585,-14.487078,0.05231,0.254571,0.096017
0.3819999694824219,-3.024173,-0.698654,-14.588016,0.061323,0.239325,0.09695
0.3859999179840088,-2.865884,-0.644573,-15.036363,0.061772,0.214081,0.094919
0.39099979400634766,-2.743311,-0.610507,-15.740444,0.071423,0.172669,0.096838
0.39499998092651367,-2.823836,-0.410837,-17.760086,0.095681,0.191303,0.103295
0.3989999294281006,-2.989927,-0.527032,-19.31809,0.090305,0.254876,0.114473
0.40399980545043945,-2.345832,-0.430562,-21.76854,0.071188,0.263316,0.116914
0.40799999237060547,-1.918011,-0.512424,-21.642316,0.060245,0.227099,0.110474
0.4119999408721924,-1.806284,-0.594884,-21.361328,0.050394,0.197873,0.106198
0.4159998893737793,-1.990968,-0.74241,-21.347128,0.041267,0.205527,0.110567
0.4199998378753662,-2.248995,-0.737227,-20.5218,0.048098,0.223524,0.114812
0.4239997863769531,-2.414752,-0.781674,-19.283474,0.066106,0.225806,0.11616
0.42799997329711914,-2.583857,-0.784213,-19.427556,0.085054,0.221731,0.11605
0.43199992179870605,-2.580842,-0.794765,-19.395994,0.086684,0.210805,0.117415
0.43599987030029297,-2.377015,-0.878616,-19.353338,0.077792,0.18487,0.115015
0.4419999122619629,-2.2906,-0.914289,-19.669008,0.07229,0.1722,0.112926
0.4459998607635498,-2.306598,-0.947053,-19.719616,0.069477,0.182747,0.113164
0.4499998092651367,-2.269759,-0.940041,-19.64763,0.073172,0.193407,0.115868
0.45399999618530273,-2.269511,-0.932221,-19.48341,0.081593,0.210801,0.118655
0.45799994468688965,-2.244507,-0.940687,-19.543724,0.092467,0.219101,0.120233
0.46199989318847656,-2.25631,-0.930491,-19.528214,0.100307,0.232082,0.121592
0.4659998416900635,-2.175458,-0.962054,-19.185524,0.103162,0.242746,0.123213
0.4699997901916504,-2.158176,-0.973713,-18.699528,0.0995,0.257234,0.123052
0.4739999771118164,-2.20188,-0.959439,-17.889804,0.095146,0.277635,0.123043
0.4779999256134033,-2.22049,-0.934324,-16.682292,0.094575,0.293002,0.123601
0.4829998016357422,-2.280508,-0.952556,-14.979431,0.090243,0.304103,0.122582
0.48799991607666016,-2.362854,-0.914904,-13.679083,0.092874,0.304371,0.121497
0.49199986457824707,-2.491344,-0.960516,-12.474925,0.092117,0.303148,0.120161
0.495999813079834,-2.567941,-0.987688,-11.54216,0.086566,0.296418,0.119131
0.5,-2.647522,-1.040801,-10.818844,0.08094,0.279519,0.117157
0.5039999485015869,-2.808775,-1.072718,-10.221606,0.070766,0.273746,0.115461
0.5079998970031738,-2.857569,-1.073647,-9.890139,0.061296,0.25759,0.113686
0.5119998455047607,-2.919786,-1.103064,-9.639964,0.053395,0.243585,0.111558
0.5159997940063477,-2.988301,-1.116543,-9.645906,0.048446,0.230313,0.109439
0.5199999809265137,-2.998159,-1.058335,-9.999355,0.048406,0.213663,0.108426
0.5249998569488525,-2.953684,-1.04743,-10.205486,0.04558,0.180217,0.103751
0.5289998054504395,-2.966196,-1.033392,-10.503847,0.045953,0.166682,0.101373
0.5329999923706055,-2.940383,-0.980262,-10.908002,0.051638,0.154644,0.100055
0.5369999408721924,-2.881698,-0.976438,-11.219364,0.061294,0.136113,0.097751
0.5409998893737793,-2.895149,-1.073693,-11.405733,0.058644,0.126239,0.094962
0.5460000038146973,-2.941123,-1.064901,-11.815695,0.059258,0.130979,0.093958
0.5499999523162842,-2.895304,-1.097305,-12.1012,0.057554,0.128224,0.092952
0.5539999008178711,-2.788989,-1.082363,-12.640296,0.061633,0.111233,0.090007
0.557999849319458,-2.768203,-1.093531,-13.105588,0.067434,0.093428,0.086533
0.5619997978210449,-2.720442,-1.081606,-13.42636,0.07713,0.07413,0.084614
0.5669999122619629,-2.712033,-1.120888,-13.824657,0.086663,0.063527,0.085976
0.5709998607635498,-2.720226,-1.11152,-14.111235,0.10124,0.059913,0.087356
0.5749998092651367,-2.735928,-1.117428,-14.535159,0.118132,0.061951,0.089685
0.5789999961853027,-2.71452,-1.158107,-15.228377,0.122404,0.06661,0.092169
0.5829999446868896,-2.615011,-1.211735,-16.047962,0.118952,0.071249,0.094459
0.5869998931884766,-2.48875,-1.219361,-16.90837,0.115614,0.077155,0.095182
0.5909998416900635,-2.37623,-1.249356,-17.627908,0.111761,0.089589,0.095831
0.5959999561309814,-2.247161,-1.213581,-18.351656,0.116705,0.103855,0.098092
0.5999999046325684,-2.239025,-1.222822,-19.443088,0.120304,0.133961,0.1018
0.6039998531341553,-2.076556,-1.221501,-19.662546,0.120744,0.146566,0.104812
0.6079998016357422,-2.043305,-1.314356,-20.355934,0.115142,0.172384,0.10876
0.6109998226165771,-1.93046,-1.253814,-20.912206,0.117734,0.179207,0.110426
0.6169998645782471,-1.834431,-1.140571,-21.876822,0.12743,0.20928,0.114466
0.620999813079834,-1.674146,-1.141322,-22.5764,0.131387,0.222606,0.116039
0.625,-1.523011,-1.27059,-22.593296,0.109922,0.238646,0.114793
0.6289999485015869,-1.449994,-1.269348,-22.748266,0.112471,0.257599,0.115961
0.6329998970031738,-1.389814,-1.237252,-22.545324,0.108762,0.282647,0.117736
0.6369998455047607,-1.304142,-1.269126,-22.346762,0.110195,0.303261,0.119516
0.6409997940063477,-1.270423,-1.295743,-22.252164,0.107843,0.323075,0.121094
0.6459999084472656,-1.187466,-1.265777,-21.902498,0.112672,0.336454,0.12205
0.6499998569488525,-1.073625,-1.187506,-21.067152,0.12156,0.343952,0.123383
0.6529998779296875,-0.983144,-1.198845,-20.424944,0.129699,0.346114,0.123911
0.6569998264312744,-0.983299,-1.263833,-20.451984,0.135245,0.353722,0.126412
0.6609997749328613,-0.949171,-1.203098,-19.800228,0.158519,0.356308,0.129559
0.6669998168945312,-0.899473,-1.367851,-19.552924,0.15476,0.366229,0.129361
0.6710000038146973,-0.943309,-1.401394,-18.898334,0.149462,0.385486,0.125805
0.6749999523162842,-0.88007,-1.364376,-18.526514,0.161757,0.389702,0.12557
0.6789999008178711,-0.846689,-1.400546,-18.089594,0.163657,0.395756,0.125678
0.682999849319458,-0.832822,-1.364978,-17.534604,0.172916,0.393819,0.125446
0.6869997978210449,-0.825776,-1.450575,-16.836702,0.160332,0.389689,0.125667
0.6899998188018799,-0.832392,-1.47009,-16.351497,0.150386,0.376443,0.121414
0.6949999332427979,-1.046681,-1.37734,-16.170449,0.145133,0.392592,0.118068
0.6989998817443848,-0.948325,-1.310602,-15.714887,0.135623,0.362259,0.114232
0.7029998302459717,-1.123133,-1.193029,-15.442516,0.13874,0.353129,0.113029
0.7089998722076416,-1.26462,-1.123483,-14.851447,0.126931,0.324033,0.112903
0.7129998207092285,-1.234683,1.333179,-36.3157,0.249935,0.373975,0.12816
0.7170000076293945,1.108976,-0.315959,-22.454874,0.234974,-0.025312,0.095773
0.7209999561309814,0.558611,-0.209612,-22.41907,0.067152,0.222669,0.077618
0.7249999046325684,1.490829,1.644507,-41.139896,0.066493,0.347339,0.104577
0.7289998531341553,-0.192784,1.019714,-25.623738,0.145493,0.557417,0.140627
0.7319998741149902,1.082663,1.132181,-29.210636,0.132775,0.444915,0.130975
0.7359998226165771,-0.066969,0.384203,-22.997338,0.094836,0.386927,0.116041
0.7400000095367432,-1.24286,0.539256,-19.337608,0.178137,0.33866,0.109455
0.7439999580383301,-1.852026,-0.464966,-14.426025,0.077454,0.34304,0.115188
0.748999834060669,-1.852375,-0.898337,-11.859273,0.000489,0.300958,0.118705
0.7529997825622559,-2.396317,-0.84394,-10.529345,0.034736,0.256352,0.111813
0.7569999694824219,-3.011682,-1.150708,-9.511567,0.010671,0.219797,0.105063
0.7630000114440918,-3.183339,-0.977975,-8.875388,0.011605,0.160988,0.105006
0.7669999599456787,-3.109767,-0.960864,-9.19268,0.032618,0.120576,0.104162
0.7709999084472656,-3.024376,-1.066102,-9.678042,0.036578,0.081772,0.101005
0.7739999294281006,-2.945938,-1.126093,-10.231792,0.043292,0.058147,0.100711
0.7779998779296875,-2.896255,-1.175836,-10.862392,0.053263,0.042226,0.10211
0.7819998264312744,-3.055979,-1.260775,-11.284619,0.050929,0.077993,0.104392
0.7859997749328613,-3.182761,-1.307304,-11.664831,0.041598,0.137242,0.106702
0.7899999618530273,-2.937611,-1.309833,-12.07394,0.048203,0.144504,0.103615
0.7939999103546143,-2.929339,-1.334692,-12.220381,0.05574,0.156811,0.098636
0.7979998588562012,-2.747064,-1.331964,-12.541671,0.058337,0.141898,0.094956
0.8029999732971191,-2.591299,-1.386508,-12.903016,0.065066,0.111278,0.089747
0.80899977684021,-2.500229,-1.434555,-13.522691,0.082206,0.062625,0.082538
0.812999963760376,-2.658799,-1.47795,-13.70017,0.083685,0.071075,0.081025
0.8159999847412109,-2.533735,-1.445367,-13.915236,0.094302,0.064835,0.081184
0.8199999332427979,-2.595003,-1.485481,-14.119753,0.098219,0.070627,0.078842
0.8239998817443848,-2.377686,-1.450675,-14.427056,0.109954,0.057486,0.078621
0.8279998302459717,-2.365949,-1.560263,-14.755947,0.105227,0.063894,0.078034
0.8319997787475586,-2.400296,-1.494227,-15.000408,0.106725,0.095268,0.081649
0.8359999656677246,-2.20606,-1.422933,-15.171979,0.119911,0.101832,0.083457
0.8399999141693115,-2.235069,-1.424536,-15.340281,0.128023,0.130073,0.086542
0.8439998626708984,-2.218833,-1.379013,-15.548719,0.141638,0.170469,0.092335
0.8479998111724854,-1.990533,-1.352085,-15.897549,0.14776,0.178102,0.096431
0.8529999256134033,-1.914788,-1.208923,-16.0363,0.180859,0.187985,0.096949
0.8579998016357422,-1.984865,-1.089645,-16.320131,0.230978,0.217853,0.102218
0.8619999885559082,-1.967559,-1.091373,-16.660814,0.250599,0.243259,0.110586
0.8659999370574951,-1.9077,-1.198222,-17.087478,0.256632,0.264532,0.115897
0.869999885559082,-1.686343,-1.422061,-17.522892,0.226207,0.257214,0.116049
0.873999834060669,-1.560103,-1.625877,-17.815216,0.198628,0.257614,0.112592
0.8779997825622559,-1.508782,-1.657285,-17.969112,0.172815,0.26676,0.109895
0.8819999694824219,-1.500009,-1.480399,-18.055308,0.179221,0.276604,0.107068
0.8859999179840088,-1.528754,-1.648356,-17.70038,0.157281,0.291147,0.10767
0.8899998664855957,-1.44133,-1.685588,-17.411308,0.1396,0.273108,0.107586
0.8939998149871826,-1.815468,-1.540108,-17.35156,0.150415,0.309013,0.109751
0.8999998569488525,-1.599055,-1.514343,-16.986224,0.138279,0.30703,0.111581
0.9039998054504395,-1.630474,-1.428712,-17.081196,0.143886,0.302061,0.110258
0.9079999923706055,-1.714146,-1.321665,-16.814448,0.143002,0.311699,0.109735
0.9119999408721924,-1.766575,-1.197791,-16.811958,0.161207,0.311668,0.112969
0.9159998893737793,-1.692671,-1.250799,-16.309805,0.152304,0.308329,0.115608
0.9199998378753662,-2.055716,-1.002334,-16.944148,0.193534,0.345837,0.119182
0.9239997863769531,-1.582265,-1.393132,-15.899969,0.118363,0.319067,0.119264
0.9279999732971191,-1.683536,-1.211655,-15.573933,0.14798,0.291644,0.110485
0.931999921798706,-2.243979,-0.947669,-15.66364,0.171686,0.322098,0.109164
0.935999870300293,-2.196587,-0.95646,-15.72498,0.16209,0.327228,0.114817
0.9409999847412109,-2.301722,-0.911263,-15.453181,0.162615,0.337413,0.115149
0.9449999332427979,-2.385352,-0.697332,-15.967837,0.18777,0.341735,0.113625
0.9489998817443848,-2.29394,-0.423708,-16.09496,0.221105,0.328272,0.113355
0.9529998302459717,-1.898682,1.236006,-30.442184,0.247284,0.574712,0.16168
0.9569997787475586,1.486005,0.584574,-25.276174,0.2465,0.080022,0.125881
0.9619998931884766,0.414583,-0.064858,-24.111978,0.196005,0.124113,0.102712
0.9659998416900635,0.14461,0.021661,-25.165956,0.164523,0.174523,0.123122
0.9699997901916504,0.064432,0.104614,-23.981036,0.157894,0.237296,0.145415
0.9739999771118164,-0.247884,-0.162171,-21.8241,0.134191,0.244513,0.140465
0.9779999256134033,-0.929152,-0.282826,-19.213862,0.134009,0.166313,0.120198
0.9829998016357422,-2.055024,-0.500644,-15.913566,0.127194,0.136872,0.108504
0.9869999885559082,-2.759203,-0.90159,-13.139947,0.080464,0.150114,0.109952
0.9909999370574951,-3.490969,-1.130777,-11.262675,0.060519,0.182916,0.111064
0.994999885559082,-3.773354,-1.254427,-9.900482,0.047386,0.173989,0.111197
0.998999834060669,-3.693352,-1.236046,-9.09233,0.061101,0.105826,0.107433
1.0029997825622559,-3.748431,-1.39013,-8.88266,0.063746,0.036491,0.103244
1.0069999694824219,-3.840395,-1.419598,-9.19917,0.072183,-0.005252,0.102203
1.0119998455047607,-3.820487,-1.387938,-9.43362,0.086906,-0.033066,0.102529
1.0159997940063477,-3.980845,-1.416515,-9.587168,0.103331,-0.041633,0.100447
1.0199999809265137,-4.160221,-1.413867,-9.604766,0.116258,-0.034703,0.100024
1.0249998569488525,-4.284898,-1.420858,-9.900315,0.120471,-0.017762,0.099504
1.0289998054504395,-4.159764,-1.518056,-10.67637,0.104558,-0.034463,0.094169
1.0329999923706055,-3.898576,-1.540329,-11.418523,0.092906,-0.088463,0.085059
1.0369999408721924,-4.087236,-1.402585,-11.626108,0.112086,-0.088814,0.079352
1.0409998893737793,-4.0622,-1.353476,-11.955508,0.114226,-0.076947,0.079126
1.0449998378753662,-4.057714,-1.372533,-12.045091,0.116688,-0.045495,0.081544
1.0489997863769531,-3.487147,-1.532548,-12.772208,0.099099,-0.099886,0.080122
1.053999900817871,-3.703501,-1.597014,-13.21724,0.098278,-0.125673,0.075485
1.056999921798706,-3.949212,-1.428813,-13.404884,0.106379,-0.099602,0.076378
1.061999797821045,-3.677636,-1.435197,-13.635884,0.099512,-0.108187,0.077936
1.066999912261963,-4.041217,-1.296091,-13.592467,0.124257,-0.028718,0.079815
1.0709998607635498,-3.686866,-1.322431,-13.874573,0.112524,-0.065425,0.082531
1.0749998092651367,-3.791126,-1.303695,-14.123954,0.121744,-0.018839,0.085958
