Time Elapsed (s),Fx (N),Fy (N),Fz (N),Tx (Nm),Ty (Nm),Tz (Nm)
0.003999948501586914,-4.598983,-0.326182,-12.713647,0.047141,-0.036476,0.078984
0.01900005340576172,-4.496637,-0.372781,-12.732863,0.047698,-0.033813,0.075598
0.021000146865844727,-4.455513,-0.349706,-12.718235,0.047855,-0.033003,0.074938
0.02500009536743164,-4.383724,-0.357936,-12.726621,0.047712,-0.031817,0.074202
0.029000043869018555,-4.347752,-0.349132,-12.694911,0.047338,-0.030418,0.073261
0.03299999237060547,-4.319367,-0.320051,-12.663775,0.046607,-0.030269,0.072981
0.03699994087219238,-4.308233,-0.290336,-12.644897,0.046,-0.03049,0.073354
0.04200005531311035,-4.336667,-0.250697,-12.664281,0.045865,-0.030513,0.072732
0.046000003814697266,-4.3572,-0.256858,-12.695532,0.045524,-0.031828,0.07288
0.04999995231628418,-4.396547,-0.26202,-12.739636,0.0464,-0.032488,0.073361
0.05500006675720215,-4.45043,-0.263872,-12.73583,0.046867,-0.034273,0.073265
0.05900001525878906,-4.491559,-0.290442,-12.747785,0.046348,-0.034809,0.073484
0.06299996376037598,-4.50405,-0.268889,-12.783465,0.046842,-0.034887,0.07475
0.06700015068054199,-4.480887,-0.276774,-12.789884,0.046527,-0.03411,0.074386
0.0710000991821289,-4.45823,-0.270408,-12.841012,0.046525,-0.03367,0.075017
0.07500004768371582,-4.414485,-0.279054,-12.833364,0.046696,-0.033239,0.075508
0.07899999618530273,-4.338807,-0.274164,-12.842714,0.046329,-0.032409,0.076442
0.0820000171661377,-4.290602,-0.287474,-12.85281,0.046203,-0.031233,0.077471
0.08599996566772461,-4.215279,-0.278912,-12.86017,0.046742,-0.029804,0.078768
0.09200000762939453,-4.087002,-0.309097,-12.901437,0.046459,-0.028073,0.080369
0.09599995613098145,-4.01884,-0.304195,-12.896987,0.046873,-0.026944,0.081483
0.10000014305114746,-3.951944,-0.301889,-12.940254,0.046444,-0.025721,0.081434
0.10400009155273438,-3.897137,-0.272149,-12.958014,0.046184,-0.024887,0.081679
0.10899996757507324,-3.88962,-0.235266,-12.979527,0.046198,-0.024872,0.081706
0.11300015449523926,-3.902584,-0.219872,-13.011133,0.045121,-0.025773,0.081111
0.11700010299682617,-3.946958,-0.179268,-13.049649,0.044182,-0.026856,0.080716
0.12100005149841309,-4.033163,-0.134623,-13.092467,0.043626,-0.028346,0.080245
0.12400007247924805,-4.120315,-0.115878,-13.11402,0.042689,-0.030334,0.07984
0.12800002098083496,-4.232149,-0.056227,-13.14984,0.042505,-0.032688,0.079779
0.13199996948242188,-4.334436,-0.031905,-13.182074,0.042286,-0.034571,0.07954
0.1360001564025879,-4.400989,0.027654,-13.20801,0.041602,-0.035889,0.078778
0.1419999599456787,-4.47665,0.061469,-13.24446,0.040593,-0.036897,0.078326
0.14600014686584473,-4.598149,0.108191,-13.465305,0.038854,-0.015455,0.079456
0.15000009536743164,-4.482084,0.171148,-14.207792,0.036934,-0.006303,0.079832
0.15400004386901855,-4.516635,0.473163,-18.922028,0.045329,0.092651,0.08516
0.15900015830993652,-3.477249,1.002542,-20.196362,0.082771,0.115598,0.087138
0.16300010681152344,-2.960433,0.539627,-20.256638,0.003416,0.119768,0.084483
0.1660001277923584,-3.017024,0.447723,-20.937478,-0.052576,0.13302,0.083795
0.1700000762939453,-3.114326,0.728719,-19.878548,-0.02629,0.134928,0.07645
0.17400002479553223,-3.132012,0.475412,-18.571734,-0.033039,0.124869,0.067548
0.17799997329711914,-3.092066,0.34924,-17.197008,-0.035026,0.099313,0.067019
0.18200016021728516,-3.190318,0.297182,-16.050168,-0.017552,0.077503,0.070297
0.18799996376037598,-3.263452,0.175678,-15.246645,0.00971,0.067473,0.075243
0.192000150680542,-3.246019,0.112302,-15.372035,0.018218,0.06733,0.078505
0.1960000991821289,-3.202664,0.136845,-15.679144,0.032121,0.069749,0.079138
0.20000004768371582,-3.181672,0.09632,-15.941814,0.028446,0.079798,0.080114
0.20300006866455078,-3.158791,0.092346,-16.246941,0.025072,0.091585,0.082028
0.2070000171661377,-3.097108,0.134328,-16.771778,0.032549,0.10256,0.083739
0.21200013160705566,-3.059778,0.132427,-17.207002,0.039533,0.105314,0.084601
0.21600008010864258,-3.065486,0.104422,-17.359146,0.044262,0.104125,0.085822
0.2200000286102295,-3.153329,0.087171,-17.296216,0.049724,0.101782,0.086841
0.2239999771118164,-3.251494,0.078647,-17.040938,0.055222,0.094733,0.087598
0.22800016403198242,-3.412712,0.039262,-16.361787,0.056589,0.082327,0.086224
0.23399996757507324,-3.690505,-0.014953,-15.051454,0.057488,0.054938,0.085061
0.23800015449523926,-3.823801,-0.07134,-14.296994,0.058224,0.028029,0.083768
0.24200010299682617,-3.928961,-0.113752,-13.712441,0.056129,-0.004589,0.081403
0.24500012397766113,-3.993525,-0.116642,-13.41274,0.054279,-0.027541,0.079438
0.24900007247924805,-4.096855,-0.123467,-13.115166,0.049927,-0.048733,0.07828
0.25300002098083496,-4.193203,-0.098549,-13.049002,0.043733,-0.055593,0.077773
0.2569999694824219,-4.246303,-0.025394,-13.068309,0.040769,-0.059347,0.077745
0.26200008392333984,-4.252076,0.017755,-13.168671,0.035946,-0.059812,0.077376
0.26600003242492676,-4.277512,0.074287,-13.236089,0.032615,-0.057401,0.076457
0.26999998092651367,-4.27891,0.156107,-13.28363,0.03144,-0.051351,0.076013
0.2740001678466797,-4.294815,0.191004,-13.275775,0.032567,-0.045078,0.0758
0.2780001163482666,-4.320503,0.221809,-13.189689,0.035932,-0.03631,0.075524
0.2820000648498535,-4.310108,0.206887,-13.13311,0.037075,-0.033609,0.075086
0.2869999408721924,-4.283613,0.197741,-13.057808,0.03889,-0.032464,0.073339
0.2910001277923584,-4.277249,0.18667,-13.021508,0.039581,-0.032007,0.072663
0.2950000762939453,-4.233287,0.150126,-13.002514,0.039294,-0.031404,0.071763
0.2990000247955322,-4.183551,0.116146,-13.012221,0.040363,-0.030276,0.071845
0.30299997329711914,-4.145667,0.075494,-13.03126,0.041434,-0.03024,0.072862
0.30700016021728516,-4.105559,0.040721,-13.044343,0.041576,-0.029264,0.073489
0.312000036239624,-4.053369,-0.018642,-13.042658,0.042766,-0.028644,0.074955
0.31599998474121094,-4.01255,-0.075512,-13.07064,0.04384,-0.027925,0.076248
0.31999993324279785,-3.969932,-0.132475,-13.057556,0.044664,-0.027991,0.078422
0.32400012016296387,-3.919071,-0.183467,-13.079352,0.045688,-0.02797,0.079983
0.32899999618530273,-3.862343,-0.220772,-13.061524,0.045527,-0.026936,0.082087
0.33299994468688965,-3.801475,-0.238125,-13.110084,0.046245,-0.025952,0.082924
0.33700013160705566,-3.752504,-0.263385,-13.126472,0.046315,-0.025381,0.083956
0.3429999351501465,-3.691113,-0.300191,-13.167054,0.046684,-0.024726,0.084364
0.3450000286102295,-3.683938,-0.295011,-13.188237,0.046551,-0.024357,0.083743
0.3489999771118164,-3.655454,-0.290467,-13.22493,0.046243,-0.02414,0.083463
0.3530001640319824,-3.608775,-0.296273,-13.276388,0.046022,-0.023382,0.082452
0.35700011253356934,-3.563498,-0.330304,-13.34507,0.046645,-0.02314,0.081399
0.36100006103515625,-3.501875,-0.338725,-13.417312,0.047048,-0.022534,0.080923
0.36500000953674316,-3.465979,-0.370377,-13.480887,0.047299,-0.022145,0.079346
0.3710000514984131,-3.433094,-0.409299,-13.576968,0.047857,-0.021296,0.077965
0.375,-3.384599,-0.44094,-13.620782,0.048422,-0.020883,0.076459
0.3789999485015869,-3.343484,-0.496517,-13.670232,0.049567,-0.020739,0.075669
0.38300013542175293,-3.313366,-0.53623,-13.712257,0.050426,-0.02004,0.075133
0.3900001049041748,-3.270331,-0.569453,-13.722518,0.050215,-0.01908,0.0741
0.39100003242492676,-3.240876,-0.586585,-13.735933,0.050506,-0.019515,0.074754
0.39499998092651367,-3.232391,-0.623383,-13.75551,0.051775,-0.018419,0.074535
0.3990001678466797,-3.233891,-0.642717,-13.732431,0.052345,-0.01898,0.074111
0.4030001163482666,-3.246905,-0.688386,-13.737044,0.052939,-0.01945,0.074565
0.4070000648498535,-3.277606,-0.706286,-13.724371,0.053778,-0.020315,0.074246
0.4119999408721924,-3.336341,-0.738762,-13.699158,0.053595,-0.020819,0.074591
0.41700005531311035,-3.402242,-0.758111,-13.675462,0.053654,-0.021599,0.074712
0.42100000381469727,-3.452248,-0.770605,-13.676033,0.054425,-0.022973,0.075808
0.4249999523162842,-3.516813,-0.78168,-13.64267,0.054725,-0.024175,0.07618
0.4290001392364502,-3.613821,-0.808998,-13.608449,0.054735,-0.025385,0.076359
0.4330000877380371,-3.69962,-0.795632,-13.570854,0.054616,-0.026336,0.077929
0.437000036239624,-3.756583,-0.785786,-13.510948,0.054372,-0.027824,0.077709
0.44099998474121094,-3.796305,-0.763188,-13.461839,0.053941,-0.028028,0.078876
0.44499993324279785,-3.817779,-0.730245,-13.44352,0.052823,-0.027828,0.079026
0.44900012016296387,-3.807135,-0.691251,-13.421758,0.052163,-0.027835,0.079207
0.45399999618530273,-3.813,-0.639214,-13.380936,0.050443,-0.02761,0.079564
0.45799994468688965,-3.817102,-0.612991,-13.324604,0.04917,-0.027288,0.079448
0.46200013160705566,-3.831284,-0.577724,-13.274488,0.048424,-0.026951,0.079063
0.4660000801086426,-3.819855,-0.546674,-13.23959,0.04794,-0.026496,0.078971
0.4700000286102295,-3.824061,-0.522627,-13.190685,0.047609,-0.026298,0.079397
0.47500014305114746,-3.817393,-0.509643,-13.171178,0.047474,-0.025857,0.07924
0.4790000915527344,-3.825215,-0.499346,-13.136234,0.046825,-0.025903,0.078954
0.4830000400543213,-3.833355,-0.488955,-13.102111,0.046869,-0.026132,0.078342
0.4869999885559082,-3.843929,-0.506824,-13.08363,0.047445,-0.026,0.078603
0.4909999370574951,-3.851128,-0.542441,-13.093921,0.048088,-0.025985,0.078795
0.4960000514984131,-3.871815,-0.570685,-13.096821,0.049068,-0.025846,0.077673
0.5,-3.867778,-0.598034,-13.095608,0.049886,-0.026494,0.077601
0.5039999485015869,-3.890316,-0.621323,-13.097966,0.050134,-0.026475,0.077525
0.5080001354217529,-3.921793,-0.629743,-13.120304,0.050632,-0.026835,0.077578
0.5120000839233398,-3.947065,-0.646811,-13.120766,0.051035,-0.027607,0.07707
0.5160000324249268,-3.978214,-0.637153,-13.145192,0.051406,-0.02794,0.076784
0.5199999809265137,-4.444168,-0.374415,-13.734961,0.08725,0.065457,0.08356
0.5240001678466797,-4.1605,-0.247148,-14.227264,0.095667,0.148634,0.094495
0.5290000438690186,-3.396465,-0.200565,-15.058402,0.109213,0.137411,0.095468
0.5329999923706055,-3.148854,-0.343321,-15.096098,0.100552,0.095139,0.089962
0.5380001068115234,-3.212661,-0.534615,-14.3574,0.081627,0.05631,0.082045
0.5420000553131104,-3.194188,-0.680612,-13.735756,0.074696,0.024195,0.074466
0.5460000038146973,-3.533178,-0.757249,-13.525294,0.068645,0.042901,0.070986
0.5499999523162842,-3.559368,-0.705525,-13.790876,0.067707,0.08752,0.074872
0.5540001392364502,-3.221706,-0.638808,-14.322785,0.068336,0.103677,0.078161
0.5580000877380371,-3.033355,-0.615673,-14.582593,0.066609,0.1078,0.078325
0.562000036239624,-3.068698,-0.597353,-14.682681,0.071327,0.111521,0.078126
0.5659999847412109,-3.150571,-0.676406,-14.652109,0.071266,0.132107,0.07995
0.5699999332427979,-2.96405,-0.685495,-14.603722,0.078053,0.136371,0.082256
0.5740001201629639,-2.802614,-0.739715,-14.75321,0.076774,0.130126,0.083012
0.5800001621246338,-2.792729,-0.699123,-14.955846,0.084003,0.134708,0.08329
0.5840001106262207,-2.783389,-0.711912,-15.06747,0.08604,0.147459,0.086331
0.5880000591278076,-2.755691,-0.722212,-15.031241,0.090283,0.167636,0.08923
0.5920000076293945,-2.655333,-0.706185,-15.213917,0.094887,0.164758,0.088794
0.5959999561309814,-2.746699,-0.621796,-15.698289,0.097511,0.184235,0.089938
0.6000001430511475,-2.593878,-0.138733,-17.910552,0.182327,0.209552,0.09376
0.6040000915527344,-2.373777,0.002519,-21.692908,0.202448,0.27057,0.102752
0.6080000400543213,-1.818028,0.04293,-21.449658,0.212867,0.334306,0.111798
0.6119999885559082,-0.956179,-0.128977,-21.0155,0.189219,0.239215,0.109801
0.6159999370574951,-1.586495,-0.576632,-20.673704,0.130866,0.199721,0.094485
0.6210000514984131,-2.317428,-0.829471,-19.728136,0.081728,0.207721,0.078923
0.625,-2.210035,-0.535046,-21.902876,0.10516,0.268451,0.07819
0.6289999485015869,-1.280148,-0.311304,-22.628472,0.127905,0.239653,0.077209
0.6340000629425049,-1.414776,-0.46914,-22.558996,0.088584,0.260182,0.078211
0.6380000114440918,-1.546699,-0.477535,-20.921262,0.071475,0.243411,0.08241
0.6419999599456787,-2.0021,-0.718015,-20.285354,0.06106,0.236494,0.081246
0.6460001468658447,-2.349476,-0.682397,-19.754018,0.074785,0.280505,0.087439
0.6500000953674316,-1.850931,-0.602821,-20.071182,0.0765,0.271168,0.09269
0.6540000438690186,-1.710761,-0.431018,-21.913886,0.082955,0.288901,0.097806
0.6579999923706055,-1.56945,-0.436589,-22.647038,0.078247,0.327366,0.101721
0.6610000133514404,-1.337869,-0.474943,-22.582492,0.065446,0.331026,0.103023
0.6649999618530273,-1.358957,-0.625717,-20.57665,0.048931,0.306869,0.102602
0.6710000038146973,-2.345619,-0.851723,-18.05829,0.057491,0.324525,0.102797
0.6749999523162842,-2.26994,-1.008378,-17.316992,0.070629,0.289636,0.106656
0.6790001392364502,-2.164541,-1.139616,-16.547874,0.078172,0.23239,0.105635
0.6840000152587891,-2.434955,-1.10834,-16.007189,0.092286,0.205102,0.105807
0.687999963760376,-2.64114,-1.009782,-15.531635,0.112339,0.200678,0.108631
0.692000150680542,-2.654238,-1.087213,-15.015208,0.115358,0.187329,0.107839
0.6960000991821289,-2.782698,-1.142614,-14.564115,0.114214,0.168515,0.106554
0.7000000476837158,-3.048038,-1.097436,-14.436433,0.12175,0.165415,0.105216
0.7030000686645508,-3.068862,-0.985692,-14.565771,0.133569,0.155751,0.10481
0.7070000171661377,-3.023083,-1.008897,-14.55163,0.131878,0.140923,0.104111
0.7130000591278076,-3.148072,-1.045181,-14.496632,0.13145,0.120581,0.102656
0.7170000076293945,-3.252179,-1.0519,-14.244384,0.129186,0.110069,0.101966
0.7209999561309814,-3.373546,-1.033353,-13.910092,0.135845,0.101775,0.09995
0.7250001430511475,-3.489614,-1.040306,-13.584841,0.140593,0.088566,0.098104
0.7290000915527344,-3.562152,-1.112263,-12.922658,0.137492,0.069078,0.096695
0.7330000400543213,-3.638215,-1.236657,-12.349792,0.124508,0.04695,0.095038
0.7380001544952393,-3.716694,-1.259171,-12.048277,0.123385,0.021698,0.09079
0.7420001029968262,-3.723937,-1.259097,-11.907924,0.128288,-0.004519,0.086892
0.7450001239776611,-3.727742,-1.280313,-11.830262,0.131194,-0.023355,0.084829
0.749000072479248,-3.733874,-1.313013,-11.958271,0.129047,-0.043449,0.084538
0.753000020980835,-3.743686,-1.290425,-12.181303,0.131812,-0.052741,0.084573
0.7569999694824219,-3.752682,-1.288513,-12.396108,0.131061,-0.052822,0.084762
0.7630000114440918,-3.729989,-1.234296,-12.751015,0.13194,-0.046958,0.086658
0.7669999599456787,-3.719629,-1.206817,-12.989029,0.133821,-0.039968,0.086386
0.7710001468658447,-3.677667,-1.194262,-13.279797,0.132672,-0.032696,0.08837
0.7750000953674316,-3.630318,-1.170662,-13.672192,0.133561,-0.024117,0.089574
0.7790000438690186,-3.555009,-1.205033,-14.438983,0.126541,-0.012937,0.090437
0.7829999923706055,-3.400367,-1.190782,-15.156564,0.12062,-0.000798,0.091095
0.7860000133514404,-3.306287,-1.181531,-15.738972,0.120638,0.012361,0.091275
0.7910001277923584,-3.200044,-1.171275,-16.391276,0.120836,0.036079,0.092157
0.7950000762939453,-3.141739,-1.177105,-17.000544,0.11824,0.065298,0.094781
0.7990000247955322,-3.013567,-1.205262,-17.493674,0.119128,0.087843,0.096845
0.8029999732971191,-2.915318,-1.329636,-17.87574,0.103655,0.105665,0.100945
0.8090000152587891,-2.811836,-1.324739,-17.547506,0.097075,0.135163,0.104299
0.812999963760376,-2.864429,-1.204736,-17.719284,0.109144,0.168399,0.107269
0.817000150680542,-2.616618,-1.263308,-17.176566,0.11266,0.170547,0.108849
0.8210000991821289,-2.485424,-1.315476,-17.048926,0.111194,0.151465,0.108036
0.8250000476837158,-2.678271,-1.301648,-17.34379,0.120161,0.175653,0.110593
0.8280000686645508,-2.625106,-1.278273,-17.091004,0.122389,0.193456,0.113482
0.8320000171661377,-2.39246,-1.154126,-17.05127,0.137246,0.194456,0.113422
0.8359999656677246,-2.538582,-1.140039,-17.327328,0.14643,0.231006,0.115261
0.8410000801086426,-2.354156,-1.114426,-17.087792,0.144257,0.236853,0.117076
0.8450000286102295,-2.35573,-1.101491,-17.301836,0.144583,0.244997,0.115862
0.8489999771118164,-2.35612,-1.099003,-17.308024,0.14515,0.262094,0.115783
0.8550000190734863,-2.113187,-1.094779,-17.229302,0.140118,0.260153,0.115728
0.8570001125335693,-2.147894,-1.014481,-17.41892,0.151868,0.266103,0.11582
0.8630001544952393,-2.015893,-1.062108,-17.18503,0.146472,0.269492,0.117067
0.8670001029968262,-1.997461,-1.08227,-17.777926,0.138737,0.263573,0.117315
0.8700001239776611,-2.044475,-1.111511,-18.321768,0.128591,0.265537,0.116431
0.874000072479248,-1.995635,-0.948996,-18.336094,0.123338,0.288444,0.119535
0.878000020980835,-1.83667,-0.721623,-18.183814,0.13102,0.3018,0.123815
0.8819999694824219,-1.8542,-0.705296,-17.623336,0.129037,0.325499,0.128812
0.8860001564025879,-1.808544,-0.660506,-17.622046,0.137791,0.321722,0.13327
0.8900001049041748,-1.870092,-0.698361,-16.820564,0.142936,0.343877,0.139151
0.8940000534057617,-1.625139,-0.772783,-16.669193,0.128948,0.307671,0.140737
0.8990001678466797,-1.888222,-0.72799,-16.493554,0.127053,0.335013,0.142169
0.9030001163482666,-1.801764,-0.671874,-17.84915,0.144833,0.342473,0.142408
0.9090001583099365,-1.588948,-0.74146,-21.177138,0.102073,0.388044,0.143338
0.9119999408721924,-1.376604,-0.563003,-22.225806,0.090873,0.40985,0.143956
0.9160001277923584,-1.344089,-0.355464,-23.714346,0.068446,0.455593,0.145241
0.9200000762939453,-1.336967,-0.241918,-23.57546,0.049713,0.488658,0.14815
0.9240000247955322,-1.366145,-0.205976,-23.688058,0.026255,0.505869,0.149827
0.9279999732971191,-1.374092,-0.184479,-23.197508,0.002275,0.486701,0.148384
0.9320001602172852,-1.409167,-0.066831,-22.070662,-0.004536,0.444444,0.143711
0.9360001087188721,-1.605569,-0.12762,-19.115412,-0.029398,0.39387,0.139948
0.940000057220459,-2.091991,-0.254297,-15.62716,-0.046989,0.355291,0.137319
0.9440000057220459,-2.624308,-0.383374,-12.7506,-0.049474,0.317954,0.135489
0.9500000476837158,-2.993645,-0.492999,-10.226025,-0.044109,0.243241,0.132619
0.9539999961853027,-3.083248,-0.543851,-8.789449,-0.043368,0.166059,0.12899
0.9579999446868896,-3.159213,-0.568572,-7.890392,-0.044324,0.095139,0.125599
0.9620001316070557,-3.318335,-0.533546,-7.386034,-0.04201,0.05173,0.12424
0.9660000801086426,-3.410147,-0.524924,-6.800637,-0.036309,0.020691,0.123524
0.9700000286102295,-3.571798,-0.526259,-6.781797,-0.02512,0.01036,0.123609
0.9739999771118164,-3.596521,-0.515383,-7.280275,-0.01499,-0.009963,0.122174
0.9780001640319824,-3.606583,-0.53441,-8.055156,-0.003162,-0.022142,0.119721
0.9820001125335693,-3.561233,-0.543011,-9.208662,0.002777,-0.025926,0.118393
0.9860000610351562,-3.562187,-0.57229,-10.370638,0.009829,-0.005336,0.118661
0.9909999370574951,-3.346049,-0.694186,-11.363039,0.010757,0.00868,0.11811
0.9950001239776611,-3.308364,-0.684708,-11.8993,0.026529,0.0206,0.116769
1.0,-3.338903,-0.815525,-12.173368,0.034959,0.045366,0.116637
1.003999948501587,-3.058544,-0.959474,-12.444955,0.045627,0.025697,0.114053
1.008000135421753,-3.015308,-1.061274,-12.705268,0.060442,0.009061,0.111266
1.0120000839233398,-3.157293,-1.108291,-12.916123,0.080633,0.031276,0.112725
1.0160000324249268,-2.928375,-1.157916,-13.216056,0.095408,0.0356,0.114297
1.0199999809265137,-2.827433,-1.144985,-13.586536,0.114892,0.05369,0.114596
1.0240001678466797,-2.849575,-1.169292,-13.971223,0.127145,0.085124,0.116406
1.0280001163482666,-2.783593,-1.145254,-14.255474,0.139811,0.123825,0.11835
1.0329999923706055,-2.568039,-1.059786,-14.76433,0.161466,0.15931,0.118978
1.0369999408721924,-2.459553,-0.986337,-15.215428,0.183658,0.183719,0.118848
1.0410001277923584,-2.380097,-0.876886,-15.677515,0.21511,0.205968,0.119109
1.0450000762939453,-2.270829,-0.92338,-16.769328,0.235329,0.22762,0.121033
1.0490000247955322,-2.083911,-1.145168,-18.186388,0.203851,0.251372,0.122371
1.0540001392364502,-1.843526,-1.105284,-19.278848,0.181453,0.281682,0.120582
1.058000087738037,-1.699305,-0.985484,-20.262864,0.16553,0.32445,0.118068
1.062000036239624,-1.530974,-0.915033,-20.712558,0.148214,0.367475,0.116711
1.065999984741211,-1.437313,-0.918004,-20.779518,0.13517,0.401188,0.117748
1.0699999332427979,-1.404015,-0.824367,-20.987578,0.14611,0.422884,0.119055
1.0750000476837158,-1.275726,-0.866132,-20.753696,0.143875,0.428052,0.120201
