Time Elapsed (s),Fx (N),Fy (N),Fz (N),Tx (Nm),Ty (Nm),Tz (Nm)
0.003999948501586914,-2.067118,0.73347,-14.361564,0.036936,-0.010365,0.094417
0.020999908447265625,-2.278914,0.862354,-14.165637,0.033402,-0.01162,0.085206
0.02500009536743164,-2.319674,0.886332,-14.105328,0.031827,-0.010764,0.082943
0.029000043869018555,-2.337682,0.921071,-14.02651,0.031539,-0.010745,0.078857
0.03299999237060547,-2.383713,0.934552,-13.942821,0.031214,-0.01077,0.077017
0.03699994087219238,-2.41263,0.940029,-13.893973,0.030572,-0.010987,0.074981
0.0410001277923584,-2.437264,0.922789,-13.817398,0.029869,-0.011209,0.072996
0.046000003814697266,-2.445861,0.913605,-13.735747,0.030028,-0.010834,0.071487
0.051000118255615234,-2.462297,0.892409,-13.618432,0.030375,-0.010605,0.071538
0.05500006675720215,-2.490058,0.869221,-13.538965,0.030547,-0.010432,0.07269
0.05900001525878906,-2.503263,0.837933,-13.485104,0.030421,-0.009808,0.075465
0.06299996376037598,-2.571812,0.780445,-13.497592,0.031789,-0.009662,0.076902
0.06699991226196289,-2.66829,0.671206,-13.520246,0.03368,-0.010291,0.079612
0.0710000991821289,-2.74506,0.564806,-13.55661,0.035687,-0.010278,0.081371
0.07500004768371582,-2.824407,0.461734,-13.575281,0.038153,-0.011552,0.083822
0.07899999618530273,-2.931313,0.370047,-13.586941,0.040007,-0.01369,0.086549
0.08299994468688965,-3.035107,0.300332,-13.59204,0.042357,-0.015257,0.090131
0.08700013160705566,-3.161714,0.242563,-13.61723,0.04429,-0.017206,0.092787
0.09200000762939453,-3.339688,0.174704,-13.615042,0.045703,-0.019183,0.093853
0.09599995613098145,-3.52052,0.134215,-13.612262,0.045973,-0.020882,0.093198
0.10100007057189941,-3.695896,0.116168,-13.589341,0.046073,-0.023681,0.092091
0.10500001907348633,-3.866978,0.093102,-13.555924,0.045467,-0.026204,0.090503
0.10899996757507324,-4.025287,0.120525,-13.498246,0.04449,-0.028435,0.089579
0.11299991607666016,-4.189946,0.139656,-13.437224,0.043691,-0.03083,0.087756
0.11700010299682617,-4.341508,0.165584,-13.366248,0.04195,-0.033548,0.084936
0.12100005149841309,-4.474347,0.17314,-13.315072,0.041649,-0.035626,0.082222
0.125,-4.590917,0.161348,-13.218953,0.041676,-0.036599,0.078481
0.12899994850158691,-4.64277,0.174105,-13.138941,0.041465,-0.036275,0.074439
0.13400006294250488,-4.669205,0.191501,-13.011655,0.0396,-0.036285,0.069591
0.1380000114440918,-4.681104,0.155108,-12.909754,0.039178,-0.035986,0.066372
0.1419999599456787,-4.630535,0.137838,-12.782963,0.039069,-0.035201,0.063225
0.14599990844726562,-4.564682,0.084531,-12.70271,0.039824,-0.033553,0.061267
0.1510000228881836,-4.482923,0.037668,-12.579371,0.04041,-0.030832,0.059604
0.1549999713897705,-4.39035,-0.001501,-12.546925,0.040873,-0.029067,0.06028
0.15899991989135742,-4.346456,-0.068423,-12.531799,0.041673,-0.027915,0.059818
0.16300010681152344,-4.353151,-0.126033,-12.54342,0.041997,-0.02788,0.061876
0.16700005531311035,-4.385768,-0.189707,-12.548235,0.043208,-0.028999,0.06431
0.17100000381469727,-4.451701,-0.270169,-12.566308,0.044345,-0.031869,0.06721
0.17600011825561523,-4.610595,-0.3989,-12.51497,0.047096,-0.03537,0.071454
0.18000006675720215,-4.707971,-0.478986,-12.477945,0.048762,-0.038027,0.074308
0.18400001525878906,-4.790783,-0.562391,-12.380269,0.050378,-0.03949,0.077091
0.18799996376037598,-4.835852,-0.636486,-12.306521,0.051939,-0.040276,0.078506
0.1919999122619629,-4.873964,-0.687103,-12.255088,0.052671,-0.040662,0.079798
0.1960000991821289,-4.876261,-0.741379,-12.231468,0.053927,-0.040443,0.080629
0.20000004768371582,-4.891028,-0.792463,-12.230258,0.053979,-0.039941,0.081151
0.2049999237060547,-4.825241,-0.797569,-12.219321,0.054268,-0.038283,0.081937
0.2090001106262207,-4.722516,-0.82418,-12.26703,0.054821,-0.036535,0.082306
0.21300005912780762,-4.599542,-0.813349,-12.228576,0.05395,-0.033488,0.081387
0.21600008010864258,-4.538538,-0.832442,-12.233141,0.054325,-0.031682,0.081132
0.2200000286102295,-4.455379,-0.853886,-12.220079,0.054512,-0.029713,0.080431
0.22600007057189941,-4.333652,-0.887246,-12.144745,0.055248,-0.027783,0.07783
0.23000001907348633,-4.239767,-0.917449,-12.094383,0.056138,-0.025712,0.077375
0.23399996757507324,-4.163239,-0.916403,-12.021098,0.0556,-0.023394,0.07639
0.23799991607666016,-4.061539,-0.907108,-11.973628,0.055724,-0.021985,0.076111
0.24200010299682617,-3.998792,-0.900377,-11.918476,0.054159,-0.019929,0.074925
0.24600005149841309,-3.933069,-0.847921,-11.835013,0.05294,-0.018574,0.074083
0.25,-3.880389,-0.773077,-11.778404,0.051294,-0.017892,0.073973
0.2539999485015869,-3.833143,-0.673429,-11.709116,0.049939,-0.016988,0.074021
0.2569999694824219,-3.809362,-0.630714,-11.661113,0.04757,-0.017579,0.074316
0.26200008392333984,-3.853375,-0.558121,-11.63851,0.046382,-0.017319,0.076168
0.26600003242492676,-3.945112,-0.50797,-11.609355,0.044711,-0.019177,0.078627
0.2720000743865967,-4.193424,-0.488079,-11.570665,0.044622,-0.024398,0.081927
0.2760000228881836,-4.375061,-0.524034,-11.500041,0.046363,-0.029593,0.085151
0.2799999713897705,-4.560009,-0.537623,-11.443036,0.047663,-0.032954,0.087476
0.2839999198913574,-4.740022,-0.623893,-11.397024,0.048917,-0.036838,0.089207
0.28800010681152344,-4.888876,-0.673362,-11.363568,0.050561,-0.040127,0.091005
0.29200005531311035,-5.017065,-0.724136,-11.31583,0.052412,-0.043926,0.090867
0.29600000381469727,-5.075893,-0.781116,-11.310442,0.054,-0.045467,0.091471
0.2990000247955322,-5.092879,-0.824437,-11.28199,0.055095,-0.045484,0.09088
0.30299997329711914,-5.051297,-0.856692,-11.248493,0.056089,-0.042883,0.091068
0.3080000877380371,-4.953072,-0.885512,-11.237002,0.056891,-0.04073,0.089313
0.312000036239624,-4.840826,-0.89254,-11.203979,0.056856,-0.037401,0.086361
0.31800007820129395,-4.678965,-0.846455,-11.162828,0.056007,-0.032784,0.082843
0.32200002670288086,-4.545902,-0.782207,-11.14847,0.05408,-0.030541,0.080816
0.3259999752044678,-4.471331,-0.712895,-11.109175,0.051899,-0.02793,0.077979
0.3299999237060547,-4.37601,-0.621404,-11.076247,0.050501,-0.026223,0.076013
0.3340001106262207,-4.309334,-0.518927,-11.040084,0.047943,-0.025119,0.07428
0.3380000591278076,-4.272706,-0.423004,-11.005243,0.046613,-0.024564,0.073282
0.3410000801086426,-4.270939,-0.373647,-10.995269,0.044894,-0.024492,0.073235
0.3450000286102295,-4.310276,-0.327052,-11.009806,0.04354,-0.025406,0.073636
0.3489999771118164,-4.413376,-0.28448,-11.018968,0.043304,-0.027893,0.075051
0.3529999256134033,-4.552943,-0.268711,-11.069461,0.044578,-0.031157,0.07685
0.35700011253356934,-4.676869,-0.321486,-11.085498,0.04567,-0.034745,0.079017
0.36100006103515625,-4.793657,-0.380566,-11.137113,0.04783,-0.037208,0.081719
0.3680000305175781,-4.922977,-0.462681,-11.191474,0.050042,-0.039681,0.085256
0.37199997901916504,-4.984775,-0.538428,-11.206986,0.052067,-0.040707,0.086472
0.37599992752075195,-5.03977,-0.598169,-11.24364,0.054024,-0.041905,0.086604
0.38000011444091797,-5.077734,-0.651796,-11.255954,0.055445,-0.042308,0.086466
0.38300013542175293,-5.088596,-0.665668,-11.268095,0.056127,-0.042066,0.086863
0.38700008392333984,-5.087789,-0.677329,-11.273832,0.056742,-0.042345,0.086732
0.39100003242492676,-5.101159,-0.659399,-11.25232,0.056386,-0.042338,0.085582
0.39499998092651367,-5.043263,-0.630246,-11.298812,0.056388,-0.041163,0.08348
0.3989999294281006,-4.99444,-0.557703,-11.267734,0.055463,-0.039389,0.083144
0.4030001163482666,-4.906973,-0.478434,-11.27436,0.053402,-0.037527,0.082002
0.4070000648498535,-4.824766,-0.375872,-11.288296,0.050549,-0.034817,0.079758
0.41300010681152344,-4.652436,-0.20276,-11.296186,0.04713,-0.032494,0.078163
0.4179999828338623,-4.58453,-0.102285,-11.339773,0.044227,-0.030388,0.077309
0.4219999313354492,-4.497491,-0.004673,-11.316566,0.042405,-0.029298,0.07684
0.4249999523162842,-4.450847,0.037889,-11.321128,0.040831,-0.028894,0.076417
0.4289999008178711,-4.407905,0.109321,-11.35731,0.039981,-0.028026,0.075861
0.4330000877380371,-4.341754,0.134069,-11.395388,0.039301,-0.028137,0.075268
0.437000036239624,-4.2851,0.150305,-11.449207,0.039584,-0.026699,0.074329
0.44099998474121094,-4.218988,0.13156,-11.468765,0.0402,-0.026843,0.074126
0.44499993324279785,-4.169351,0.067156,-11.494046,0.041816,-0.026525,0.073801
0.44900012016296387,-4.151869,0.014907,-11.486409,0.043513,-0.025912,0.074784
0.4530000686645508,-4.134487,-0.044222,-11.436347,0.045515,-0.026106,0.074905
0.4570000171661377,-4.124831,-0.096186,-11.41961,0.046926,-0.026494,0.07582
0.4609999656677246,-4.124979,-0.147021,-11.40575,0.047885,-0.0268,0.076645
0.4660000801086426,-4.178341,-0.199975,-11.40705,0.049846,-0.028212,0.079055
0.47099995613098145,-4.242292,-0.229216,-11.408714,0.050258,-0.030056,0.080817
0.47499990463256836,-4.278528,-0.251884,-11.397185,0.051099,-0.031575,0.083052
0.4790000915527344,-4.305076,-0.227892,-11.40859,0.051109,-0.03253,0.084137
0.4830000400543213,-4.29919,-0.194003,-11.397987,0.050167,-0.033162,0.084855
0.4869999885559082,-4.291675,-0.143851,-11.368074,0.049155,-0.032279,0.085371
0.4909999370574951,-4.255528,-0.089396,-11.388061,0.048318,-0.031408,0.085701
0.49500012397766113,-4.202732,-0.003173,-11.345155,0.046037,-0.030523,0.085525
0.49900007247924805,-4.129587,0.086464,-11.326898,0.044439,-0.029278,0.085396
0.5039999485015869,-4.040007,0.205431,-11.273705,0.041683,-0.027386,0.08467
0.5080001354217529,-3.974583,0.270503,-11.243353,0.039326,-0.026237,0.083327
0.5120000839233398,-3.912208,0.3429,-11.228684,0.038121,-0.024298,0.082528
0.5160000324249268,-3.87619,0.405009,-11.213726,0.037071,-0.023678,0.08224
0.5199999809265137,-3.846222,0.45119,-11.197468,0.035365,-0.023525,0.082029
0.5250000953674316,-3.808687,0.47274,-11.18213,0.035385,-0.023104,0.081936
0.5290000438690186,-3.777601,0.462356,-11.173704,0.03575,-0.022704,0.082257
0.5329999923706055,-3.734347,0.42986,-11.167412,0.035946,-0.022647,0.082318
0.5369999408721924,-3.702998,0.398758,-11.163248,0.037065,-0.022316,0.08249
0.5410001277923584,-3.653668,0.328754,-11.153653,0.038239,-0.02181,0.082487
0.5460000038146973,-3.614347,0.271573,-11.136814,0.039974,-0.022016,0.08178
0.5499999523162842,-3.616536,0.214464,-11.105155,0.040711,-0.021125,0.081143
0.5539999008178711,-3.598481,0.16035,-11.082702,0.042776,-0.021304,0.080297
0.5580000877380371,-3.612026,0.097304,-11.029842,0.044023,-0.021649,0.079392
0.562000036239624,-3.618508,0.057675,-10.991261,0.045102,-0.022281,0.078855
0.5659999847412109,-3.633088,0.024713,-11.00886,0.046143,-0.022594,0.078357
0.5699999332427979,-3.630018,-0.024538,-10.989972,0.046861,-0.022995,0.077969
0.5750000476837158,-3.645493,-0.041511,-10.982278,0.047465,-0.023918,0.0788
0.5789999961853027,-3.70295,-0.061523,-11.007975,0.048165,-0.023989,0.079007
0.5829999446868896,-3.692533,-0.060732,-11.0268,0.048311,-0.024544,0.07961
0.5880000591278076,-3.707274,-0.035931,-11.03,0.047606,-0.024454,0.079894
0.5920000076293945,-3.720662,-0.015744,-11.01672,0.047632,-0.025039,0.07982
0.5959999561309814,-3.760128,-0.005369,-10.98687,0.046878,-0.025214,0.079881
0.5999999046325684,-3.786448,0.041677,-10.99519,0.046319,-0.025638,0.080684
0.6040000915527344,-3.799369,0.057491,-10.965642,0.045966,-0.025702,0.081046
0.6080000400543213,-3.795208,0.103679,-10.993675,0.044957,-0.025364,0.080777
0.6119999885559082,-3.765322,0.131565,-10.958207,0.043969,-0.025163,0.080766
0.6159999370574951,-3.717061,0.168525,-10.993276,0.044128,-0.024241,0.080708
0.6200001239776611,-3.6909,0.192092,-11.018662,0.043241,-0.023546,0.080934
0.624000072479248,-3.644754,0.229578,-11.057948,0.042422,-0.022708,0.080917
0.630000114440918,-3.597101,0.267825,-11.074612,0.04202,-0.021491,0.079998
0.6340000629425049,-3.571253,0.304978,-11.096392,0.041528,-0.021128,0.079586
0.6380000114440918,-3.579713,0.318586,-11.13578,0.041197,-0.021148,0.078971
0.6419999599456787,-3.615787,0.352943,-11.126677,0.040495,-0.021813,0.078986
0.6459999084472656,-3.653197,0.392926,-11.14127,0.04005,-0.022397,0.07902
0.6500000953674316,-3.668954,0.429548,-11.164912,0.03958,-0.023628,0.079242
0.6540000438690186,-3.703633,0.462347,-11.182948,0.03856,-0.023876,0.07958
0.6579999923706055,-3.704337,0.486056,-11.236708,0.037908,-0.0239,0.080448
0.6619999408721924,-3.709146,0.510094,-11.299929,0.037976,-0.024248,0.081009
0.6660001277923584,-3.697917,0.494612,-11.348635,0.03773,-0.024016,0.08181
0.6710000038146973,-3.692629,0.476474,-11.399537,0.03803,-0.024353,0.082199
0.6749999523162842,-3.676104,0.472371,-11.417991,0.038278,-0.023803,0.082282
0.6800000667572021,-3.639659,0.433639,-11.488962,0.038703,-0.023615,0.081953
0.6840000152587891,-3.581028,0.403335,-11.574064,0.03971,-0.022886,0.081996
0.687999963760376,-3.512268,0.358651,-11.643724,0.040743,-0.021006,0.081422
0.6919999122619629,-3.470071,0.304167,-11.744276,0.042356,-0.016408,0.08132
0.6960000991821289,-3.924609,0.298486,-12.001519,0.043218,0.049592,0.07879
0.7000000476837158,-4.570283,0.489125,-12.937338,0.043018,0.308575,0.076797
0.7039999961853027,-2.866353,0.474476,-13.198809,0.027259,0.285842,0.081013
0.7079999446868896,-1.907021,0.252932,-13.513926,0.035499,0.20571,0.070274
0.7130000591278076,-2.094953,0.175682,-13.811049,0.053822,0.209278,0.059971
0.7170000076293945,-2.030991,0.13672,-13.44015,0.056775,0.258265,0.06557
0.7209999561309814,-1.963333,-0.045756,-13.901301,0.044765,0.319626,0.065382
0.7249999046325684,-1.89877,0.154146,-17.147274,0.079659,0.378471,0.062294
0.7290000915527344,-1.306328,0.251053,-19.381606,0.071387,0.392981,0.059813
0.7339999675750732,-0.658759,0.224815,-20.234292,0.016145,0.388028,0.057606
0.7379999160766602,-0.855351,0.388007,-20.07827,-0.009416,0.49586,0.052643
0.7420001029968262,-0.42052,0.660818,-17.904918,0.006937,0.524816,0.054439
0.7460000514984131,0.129594,0.354908,-17.338606,0.018769,0.428067,0.057581
0.75,-1.037768,0.05944,-18.615376,0.027109,0.477675,0.052856
0.755000114440918,-1.01153,0.260041,-17.545298,0.033548,0.502958,0.05919
0.7590000629425049,-0.205511,0.349398,-15.494408,0.019648,0.436872,0.061181
0.7630000114440918,-0.217903,0.275369,-14.546095,0.043579,0.372015,0.056148
0.7669999599456787,-1.30052,0.006558,-15.294628,0.024549,0.441398,0.055652
0.7709999084472656,-1.276043,-0.08213,-17.805506,0.035711,0.469671,0.067232
0.7750000953674316,-0.707204,0.008438,-19.759966,0.023734,0.443176,0.071887
0.7790000438690186,-0.56287,0.152846,-20.878652,0.017058,0.461763,0.066002
0.7829999923706055,-0.155912,0.287745,-19.929736,-0.007951,0.461475,0.062187
0.7880001068115234,0.072599,0.286011,-18.388262,-0.000338,0.445452,0.058936
0.7920000553131104,-0.32042,0.246653,-16.402421,0.047598,0.43206,0.056868
0.7969999313354492,-0.790366,-0.18749,-13.895365,0.07447,0.369397,0.061968
0.8010001182556152,-1.50992,-0.28356,-14.125797,0.095793,0.386696,0.062412
0.8050000667572021,-1.528907,-0.217291,-15.281443,0.101665,0.379989,0.062777
0.8090000152587891,-1.094997,-0.039571,-15.470159,0.087141,0.324821,0.056675
0.812999963760376,-1.059237,0.10018,-16.143893,0.076853,0.291565,0.048387
0.8169999122619629,-1.244002,0.273156,-15.604163,0.075572,0.290775,0.045925
0.8210000991821289,-1.485254,0.20708,-15.162722,0.070841,0.297027,0.049868
0.8250000476837158,-1.773919,0.169067,-14.492866,0.077141,0.298952,0.052105
0.8289999961853027,-2.020509,0.128743,-14.319717,0.077145,0.285234,0.051219
0.8329999446868896,-2.005358,0.175813,-14.238153,0.074691,0.243704,0.046733
0.8359999656677246,-1.961014,0.235604,-14.031229,0.070061,0.212023,0.043781
0.8429999351501465,-2.09754,0.209931,-12.681084,0.04563,0.186735,0.041784
0.8470001220703125,-2.334307,0.259323,-11.061026,0.052427,0.195407,0.044248
0.8510000705718994,-2.646586,0.183719,-9.955718,0.058057,0.207229,0.046882
0.8550000190734863,-2.839324,0.151346,-9.082602,0.069761,0.199877,0.050415
0.8589999675750732,-2.87974,0.101405,-8.600589,0.072263,0.165648,0.052313
0.8629999160766602,-2.872225,0.035897,-8.477813,0.066951,0.125271,0.053375
0.8670001029968262,-2.890874,0.030763,-8.42643,0.06019,0.09365,0.053804
0.8710000514984131,-2.946228,0.019086,-8.377776,0.053567,0.079044,0.055749
0.875,-3.046345,-0.02267,-8.458468,0.045911,0.079786,0.059434
0.878000020980835,-2.955262,-0.015092,-8.696907,0.044619,0.061372,0.063427
0.8819999694824219,-2.8748,0.03472,-9.128281,0.056478,0.030164,0.06699
0.8859999179840088,-2.98417,0.049268,-9.335711,0.072871,0.013174,0.06991
0.8930001258850098,-3.141924,-0.023057,-9.631752,0.054697,0.036584,0.078309
0.8970000743865967,-3.073758,-0.056315,-9.8703,0.051968,0.042268,0.078966
0.9010000228881836,-2.982219,-0.096231,-10.208839,0.050555,0.031335,0.078356
0.9049999713897705,-3.140797,-0.105978,-10.376659,0.05024,0.056518,0.077544
0.9089999198913574,-2.95211,-0.139077,-10.753258,0.049151,0.062895,0.081023
0.9130001068115234,-2.524229,-0.30351,-11.163618,0.045896,-0.002146,0.080965
0.9170000553131104,-2.684708,-0.394359,-11.41049,0.051777,-0.005394,0.079086
0.9200000762939453,-2.743259,-0.433115,-11.560854,0.047866,0.005596,0.08077
0.9240000247955322,-2.744532,-0.410614,-11.688034,0.055903,0.031435,0.082356
0.9279999732971191,-2.719381,-0.432268,-11.848943,0.065417,0.05259,0.083792
0.931999921798706,-2.792299,-0.430193,-12.075549,0.076888,0.09151,0.084269
0.937999963760376,-2.405099,-0.528281,-12.452453,0.090395,0.091026,0.086138
0.9419999122619629,-2.165321,-0.64188,-12.650499,0.095942,0.071452,0.08625
0.9470000267028809,-2.260784,-0.677967,-12.858699,0.107482,0.09134,0.084509
0.9509999752044678,-2.341813,-0.677452,-13.203381,0.119422,0.12518,0.084464
0.9549999237060547,-2.211812,-0.677292,-13.585394,0.137776,0.148093,0.084715
0.9590001106262207,-2.267246,-0.604237,-14.110382,0.170057,0.18523,0.083311
0.9620001316070557,-2.354601,-0.497749,-14.835491,0.206362,0.232955,0.082858
0.9660000801086426,-1.991022,-0.722401,-15.890339,0.210489,0.252637,0.085661
0.9700000286102295,-1.601141,-0.901239,-17.018102,0.203375,0.247184,0.084038
0.9739999771118164,-1.537011,-0.958216,-18.63072,0.216164,0.266574,0.079014
0.9779999256134033,-1.522724,-1.042449,-20.727216,0.21797,0.317903,0.073794
0.9839999675750732,-1.054054,-1.25228,-23.147794,0.177486,0.385247,0.066824
0.9879999160766602,-0.761253,-1.277636,-22.118734,0.152544,0.427385,0.058973
0.9920001029968262,-0.410276,-1.266718,-19.638444,0.14494,0.426056,0.054694
0.996999979019165,-0.376455,-1.424451,-17.695326,0.174292,0.377608,0.053026
1.000999927520752,-1.758477,-1.43142,-17.15063,0.229906,0.458863,0.049666
1.003999948501587,-2.210097,-1.382223,-17.436892,0.285327,0.533278,0.058238
1.008000135421753,-1.007556,-1.021486,-22.652782,0.419497,0.434183,0.075853
1.0120000839233398,-0.403601,-1.673245,-31.395868,0.432934,0.398657,0.079908
1.0160000324249268,0.660644,-1.70014,-32.155088,0.280971,0.362654,0.07492
1.0199999809265137,1.32869,-1.552558,-34.554544,0.204905,0.368807,0.061403
1.0239999294281006,0.600151,-1.324854,-34.0259,0.151893,0.516159,0.044065
1.0299999713897705,0.025548,-1.398047,-29.069938,0.10641,0.681469,0.041019
1.0339999198913574,0.384405,-1.638546,-23.296028,0.107546,0.591942,0.051831
1.0380001068115234,-0.152458,-2.026557,-18.469988,0.161835,0.457774,0.055927
1.0420000553131104,-1.429436,-2.263554,-16.86078,0.208865,0.41279,0.058122
1.0450000762939453,-2.084731,-2.282031,-16.197773,0.253148,0.413714,0.060664
1.0490000247955322,-1.53747,-2.276217,-14.671507,0.267059,0.305163,0.062528
1.053999900817871,-1.541549,-1.292756,-17.27822,0.386582,0.233463,0.057555
1.058000087738037,-1.897086,-1.007829,-20.646128,0.517673,0.213261,0.053296
1.062000036239624,-1.514138,-1.932001,-18.09788,0.290935,0.226025,0.06133
1.065999984741211,-0.999187,-1.66966,-18.172486,0.24807,0.174944,0.064369
1.0699999332427979,-2.453237,-1.138148,-17.919332,0.295169,0.292126,0.046892
1.0740001201629639,-2.953891,-0.929341,-18.490418,0.339002,0.365876,0.044806
1.0799999237060547,-1.945469,-1.364252,-17.37668,0.2838,0.254423,0.062222
1.0840001106262207,-2.034624,-1.170168,-16.81161,0.280371,0.20241,0.065716
