Time Elapsed (s),Fx (N),Fy (N),Fz (N),Tx (Nm),Ty (Nm),Tz (Nm)
0.003999948501586914,-4.26113,1.311749,-15.623483,0.038769,-0.018578,0.089031
0.01900005340576172,-4.386354,1.222727,-15.569209,0.043081,-0.017918,0.092037
0.020999908447265625,-4.41652,1.215911,-15.567046,0.04334,-0.018248,0.09311
0.02500009536743164,-4.463884,1.186163,-15.551059,0.044264,-0.018948,0.093763
0.029999971389770508,-4.512887,1.159318,-15.51404,0.045148,-0.019184,0.095134
0.03399991989135742,-4.523536,1.147097,-15.460736,0.045772,-0.018951,0.095658
0.03800010681152344,-4.550164,1.121611,-15.41112,0.046229,-0.018797,0.096583
0.04200005531311035,-4.587233,1.122738,-15.375444,0.045694,-0.019584,0.097068
0.046000003814697266,-4.663969,1.123668,-15.36444,0.045723,-0.020123,0.100183
0.04999995231628418,-4.77362,1.117572,-15.34862,0.045688,-0.02206,0.10315
0.054000139236450195,-4.902757,1.131014,-15.327914,0.046406,-0.024213,0.106293
0.05900001525878906,-5.02696,1.144928,-15.296172,0.046454,-0.026176,0.109052
0.06299996376037598,-5.128189,1.156561,-15.303772,0.046708,-0.026986,0.110405
0.06699991226196289,-5.205129,1.161883,-15.274809,0.04559,-0.027319,0.110787
0.0710000991821289,-5.278716,1.1612,-15.271412,0.045741,-0.027596,0.109034
0.07500004768371582,-5.283775,1.165651,-15.240742,0.046094,-0.026797,0.107548
0.07999992370605469,-5.26327,1.138146,-15.210013,0.04661,-0.025772,0.106372
0.0840001106262207,-5.212684,1.131992,-15.183506,0.04792,-0.02358,0.103538
0.08800005912780762,-5.138094,1.100935,-15.178216,0.049236,-0.02137,0.101391
0.09200000762939453,-5.06171,1.0418,-15.147546,0.050511,-0.019603,0.099635
0.09599995613098145,-4.955637,0.997633,-15.096651,0.052412,-0.017343,0.097688
0.10100007057189941,-4.809434,0.930815,-15.024534,0.054189,-0.014338,0.09539
0.10500001907348633,-4.674524,0.895133,-14.938338,0.054735,-0.011819,0.09339
0.10899996757507324,-4.549817,0.826898,-14.887911,0.055658,-0.009137,0.090957
0.11299991607666016,-4.430477,0.823054,-14.802986,0.056272,-0.00678,0.090468
0.11700010299682617,-4.376056,0.793449,-14.780236,0.056214,-0.005281,0.090674
0.12100005149841309,-4.415688,0.764958,-14.804733,0.056405,-0.006452,0.09475
0.125,-4.545445,0.751034,-14.832114,0.05693,-0.010299,0.100265
0.13000011444091797,-4.743304,0.727302,-14.851934,0.057409,-0.015784,0.107426
0.13400006294250488,-4.961388,0.696649,-14.859318,0.058009,-0.02082,0.114269
0.1380000114440918,-5.18939,0.692812,-14.819,0.058461,-0.025435,0.120651
0.14300012588500977,-5.446018,0.696169,-14.779124,0.057081,-0.030333,0.125184
0.14700007438659668,-5.638797,0.717118,-14.767865,0.055582,-0.03484,0.127219
0.1510000228881836,-5.777796,0.754254,-14.736036,0.054669,-0.036984,0.126471
0.1549999713897705,-5.824136,0.787167,-14.677732,0.053599,-0.037582,0.123966
0.15899991989135742,-5.791447,0.823503,-14.613909,0.052978,-0.035009,0.120868
0.16300010681152344,-5.662872,0.85418,-14.590362,0.052881,-0.03168,0.116212
0.16700005531311035,-5.55268,0.885463,-14.560265,0.052504,-0.027661,0.111217
0.17100000381469727,-5.410928,0.915478,-14.546439,0.052425,-0.023771,0.106515
0.17499995231628418,-5.241401,0.923051,-14.519496,0.053112,-0.019818,0.102721
0.18000006675720215,-5.069859,0.922214,-14.449533,0.053802,-0.015724,0.098324
0.18499994277954102,-4.879444,0.926376,-14.361937,0.054914,-0.010122,0.09467
0.18900012969970703,-4.770734,0.929397,-14.285861,0.054691,-0.006677,0.092614
0.19300007820129395,-4.675191,0.952772,-14.242048,0.05487,-0.004503,0.091229
0.19700002670288086,-4.585442,0.951798,-14.20996,0.054234,-0.002219,0.090357
0.20099997520446777,-4.53307,0.975449,-14.153317,0.053909,-0.001298,0.090975
0.2049999237060547,-4.508453,1.001944,-14.145561,0.054205,-0.001211,0.093501
0.2090001106262207,-4.554387,1.004177,-14.152637,0.053962,-0.002091,0.097625
0.21300005912780762,-4.689676,1.021656,-14.20642,0.054287,-0.005578,0.103715
0.21700000762939453,-4.898243,1.01305,-14.217472,0.054956,-0.01051,0.111636
0.22099995613098145,-5.108016,1.004778,-14.272974,0.055276,-0.01597,0.119108
0.2239999771118164,-5.23751,0.996034,-14.256389,0.05607,-0.019338,0.124308
0.23000001907348633,-5.474947,0.991318,-14.242843,0.056077,-0.024626,0.129527
0.2350001335144043,-5.61361,0.972595,-14.248887,0.055423,-0.027937,0.131663
0.2390000820159912,-5.683596,0.976262,-14.265203,0.055884,-0.02986,0.132071
0.24300003051757812,-5.716757,0.985855,-14.220351,0.056145,-0.029236,0.130158
0.24699997901916504,-5.699453,1.016259,-14.20291,0.056299,-0.02745,0.128651
0.25099992752075195,-5.639049,1.035128,-14.147174,0.055859,-0.023908,0.12546
0.25500011444091797,-5.541173,1.104122,-14.14235,0.055945,-0.020137,0.121466
0.2590000629425049,-5.439804,1.125861,-14.126047,0.054985,-0.016371,0.117854
0.2630000114440918,-5.346456,1.168668,-14.071432,0.054706,-0.012879,0.113591
0.26600003242492676,-5.267677,1.206117,-14.039171,0.055025,-0.010043,0.110911
0.26999998092651367,-5.191707,1.224197,-14.002655,0.054562,-0.007288,0.108607
0.2739999294281006,-5.144423,1.264155,-13.957181,0.054442,-0.005491,0.107256
0.2799999713897705,-5.113045,1.302993,-13.931825,0.054059,-0.004002,0.106166
0.2839999198913574,-5.109638,1.327767,-13.918732,0.053744,-0.003032,0.106725
0.2890000343322754,-5.154645,1.348906,-13.921007,0.053731,-0.003567,0.107334
0.2929999828338623,-5.205122,1.366158,-13.953448,0.05378,-0.00439,0.108579
0.2969999313354492,-5.266981,1.36156,-13.979326,0.053332,-0.006298,0.110093
0.30100011825561523,-5.353652,1.354998,-14.004557,0.054314,-0.008013,0.112259
0.30500006675720215,-5.424332,1.331109,-14.039916,0.055359,-0.010183,0.115465
0.3080000877380371,-5.477545,1.318716,-14.06351,0.057077,-0.012533,0.117354
0.312000036239624,-5.562048,1.283233,-14.080112,0.057654,-0.01413,0.12151
0.31599998474121094,-5.624504,1.258302,-14.097873,0.059168,-0.016278,0.124086
0.31999993324279785,-5.64552,1.224429,-14.060331,0.059671,-0.017917,0.125635
0.32400012016296387,-5.616627,1.211516,-14.056656,0.060495,-0.018458,0.125827
0.3299999237060547,-5.536665,1.173081,-14.023436,0.060852,-0.017037,0.125977
0.3340001106262207,-5.462113,1.166393,-14.0207,0.061235,-0.016449,0.125605
0.33899998664855957,-5.408196,1.192313,-14.004336,0.061152,-0.0151,0.1249
0.3429999351501465,-5.332245,1.194603,-13.952738,0.061411,-0.013666,0.123996
0.3470001220703125,-5.265934,1.204308,-13.951716,0.061098,-0.012588,0.123517
0.35000014305114746,-5.192239,1.201415,-13.948905,0.060681,-0.011564,0.122483
0.3540000915527344,-5.110665,1.234177,-13.93758,0.060616,-0.009914,0.121783
0.3580000400543213,-5.027171,1.269268,-13.927033,0.060657,-0.008555,0.121576
0.3619999885559082,-4.960884,1.299716,-13.941498,0.059805,-0.00747,0.121556
0.3659999370574951,-4.913005,1.317532,-13.974008,0.059448,-0.006564,0.121787
0.37199997901916504,-4.92025,1.354627,-14.00172,0.059426,-0.006307,0.123501
0.37599992752075195,-4.951127,1.382563,-14.047327,0.058894,-0.007184,0.125224
0.38000011444091797,-4.998057,1.416563,-14.0688,0.058455,-0.008203,0.127791
0.3840000629425049,-5.038459,1.417287,-14.114147,0.058294,-0.009418,0.129833
0.38899993896484375,-5.091971,1.444437,-14.151803,0.058197,-0.010164,0.131335
0.3919999599456787,-5.122081,1.468109,-14.201438,0.057614,-0.010756,0.132399
0.3959999084472656,-5.150888,1.495075,-14.244875,0.057055,-0.012307,0.133529
0.40000009536743164,-5.160773,1.508389,-14.300387,0.056877,-0.013243,0.13445
0.40400004386901855,-5.163692,1.516298,-14.349866,0.056806,-0.013315,0.135423
0.40799999237060547,-5.144196,1.526505,-14.399072,0.056904,-0.013669,0.136963
0.4119999408721924,-5.100255,1.540631,-14.44439,0.056659,-0.014039,0.136844
0.4160001277923584,-5.048385,1.553898,-14.523264,0.056308,-0.01334,0.137301
0.4219999313354492,-4.960812,1.553899,-14.605682,0.056217,-0.012354,0.137978
0.42600011825561523,-4.88248,1.553916,-14.661576,0.056491,-0.011624,0.138287
0.43000006675720215,-4.839484,1.545979,-14.719486,0.056892,-0.010934,0.138961
0.4330000877380371,-4.790142,1.545922,-14.753899,0.057133,-0.010782,0.139113
0.437000036239624,-4.724711,1.547541,-14.804878,0.05754,-0.010972,0.140099
0.44099998474121094,-4.78905,1.514393,-14.949976,0.054465,-0.003006,0.13991
0.4460000991821289,-5.975181,1.850365,-15.261859,0.061789,0.236656,0.15359
0.4500000476837158,-5.089339,1.913391,-15.262701,0.052588,0.244062,0.161394
0.45399999618530273,-4.269428,1.769931,-15.74757,0.053496,0.165282,0.146982
0.45799994468688965,-4.476487,1.762705,-15.7473,0.058002,0.183313,0.138475
0.46200013160705566,-3.788116,1.747322,-15.640727,0.05399,0.091969,0.132487
0.4660000801086426,-4.393057,1.729128,-15.850066,0.05447,0.175237,0.136754
0.4720001220703125,-3.740053,1.843539,-15.667279,0.070554,0.167603,0.144146
0.47500014305114746,-4.316592,1.753979,-15.652894,0.074713,0.234672,0.141795
0.4790000915527344,-3.838431,1.638858,-15.358101,0.065345,0.159942,0.138906
0.4830000400543213,-4.086417,1.74575,-15.690089,0.078723,0.190501,0.140159
0.4869999885559082,-4.074165,1.827467,-15.505209,0.096068,0.208221,0.146489
0.4909999370574951,-3.970413,1.825521,-15.659178,0.097896,0.20287,0.147155
0.4960000514984131,-4.077807,1.652516,-15.347224,0.090796,0.230577,0.148794
0.5,-3.757375,1.592488,-15.203842,0.081459,0.181207,0.148096
0.5039999485015869,-3.991072,1.655227,-15.880137,0.096603,0.210426,0.147575
0.5080001354217529,-3.897589,1.855537,-16.209839,0.113147,0.207925,0.14861
0.5130000114440918,-3.968153,1.773547,-16.406499,0.104846,0.28126,0.148288
0.5169999599456787,-3.109325,1.629255,-16.063516,0.082485,0.152974,0.146938
0.5209999084472656,-3.6392,1.722691,-16.510224,0.094293,0.190888,0.146221
0.5250000953674316,-3.682128,1.831329,-16.45498,0.098795,0.203704,0.148009
0.5290000438690186,-3.748849,1.853843,-16.007636,0.107847,0.249614,0.155531
0.5329999923706055,-3.711459,1.78234,-15.880701,0.105407,0.267926,0.155063
0.5369999408721924,-3.595783,1.860766,-15.991571,0.105984,0.264529,0.155528
0.5410001277923584,-3.546253,1.85304,-15.90019,0.105165,0.268602,0.151861
0.5450000762939453,-3.334832,1.947915,-15.909126,0.099571,0.246152,0.152072
0.5499999523162842,-3.40062,2.001373,-15.836728,0.099783,0.259551,0.152764
0.5550000667572021,-3.390648,2.065752,-15.65724,0.09493,0.274098,0.155203
0.5590000152587891,-3.305711,2.125929,-15.598567,0.091777,0.273294,0.154121
0.562999963760376,-3.286216,2.137956,-15.475822,0.076342,0.26792,0.154185
0.5669999122619629,-3.291281,2.155049,-15.570037,0.061988,0.271595,0.156854
0.5710000991821289,-3.252898,2.180206,-15.611493,0.046519,0.272689,0.160043
0.5750000476837158,-3.268385,2.163185,-15.439721,0.027571,0.273869,0.162496
0.5789999961853027,-3.382504,2.146206,-15.555019,0.009104,0.289002,0.166362
0.5829999446868896,-3.34202,2.152076,-15.783998,-0.007346,0.291084,0.16949
0.5870001316070557,-3.280063,2.137186,-15.612225,-0.022538,0.285801,0.169101
0.5910000801086426,-3.259071,2.106133,-15.450333,-0.033152,0.278485,0.168254
0.5959999561309814,-3.256792,2.015045,-15.551799,-0.057966,0.274563,0.16768
0.6010000705718994,-3.199408,1.962104,-15.236634,-0.071919,0.264197,0.166145
0.6050000190734863,-3.205638,1.844257,-13.613296,-0.076696,0.261322,0.162997
0.6089999675750732,-3.19003,1.696144,-12.190276,-0.06484,0.247206,0.160561
0.6129999160766602,-3.353744,1.399045,-11.207896,-0.043831,0.220726,0.152134
0.6170001029968262,-3.515769,1.134569,-10.457946,-0.032324,0.195262,0.146256
0.6210000514984131,-3.614831,0.982298,-10.061687,-0.017258,0.164162,0.140842
0.625,-3.639932,0.81984,-9.977238,-0.010547,0.128675,0.136107
0.6289999485015869,-3.604658,0.676776,-10.185125,-0.004943,0.086752,0.132753
0.6330001354217529,-3.596212,0.593189,-10.491859,-0.001386,0.053451,0.128468
0.6380000114440918,-3.606295,0.515226,-10.89881,-0.001615,0.025115,0.124429
0.6419999599456787,-3.649388,0.555749,-11.108942,0.00651,0.022945,0.122722
0.6459999084472656,-3.537162,0.456733,-11.352814,0.006895,0.010394,0.120877
0.6510000228881836,-3.439064,0.367933,-11.694629,0.002699,-0.007037,0.120249
0.6549999713897705,-3.478095,0.380851,-11.956175,0.007178,-0.002281,0.118884
0.6589999198913574,-3.46716,0.329535,-12.089033,0.005092,0.01735,0.118296
0.6630001068115234,-3.249688,0.361145,-12.506766,0.011866,0.011972,0.118099
0.6670000553131104,-3.204177,0.278151,-12.667417,0.013183,0.022457,0.117055
0.6710000038146973,-3.17736,0.284214,-12.841536,0.022071,0.047393,0.117139
0.6749999523162842,-2.9949,0.23295,-12.999912,0.019841,0.062324,0.118859
0.6800000667572021,-2.823438,0.199814,-13.244176,0.029391,0.079141,0.119135
0.6840000152587891,-2.831165,0.144984,-13.451536,0.02817,0.113435,0.120776
0.687999963760376,-2.696815,0.157028,-13.519862,0.037315,0.134382,0.123971
0.6919999122619629,-2.571507,0.187403,-13.691801,0.057947,0.150807,0.127148
0.6960000991821289,-2.594194,0.163322,-13.615891,0.075927,0.183341,0.130934
0.7000000476837158,-2.523924,0.191334,-13.606056,0.098749,0.208427,0.135598
0.7049999237060547,-2.412835,0.16339,-13.460608,0.119621,0.223298,0.140645
0.7090001106262207,-2.37301,0.227829,-13.664589,0.149068,0.243751,0.145405
0.7130000591278076,-2.351802,0.312057,-14.087511,0.182668,0.262284,0.151008
0.7170000076293945,-2.274509,0.231708,-15.276619,0.187982,0.28356,0.156887
0.7220001220703125,-2.06739,0.246396,-16.285382,0.179107,0.301698,0.163318
0.7260000705718994,-2.011038,0.337818,-16.851366,0.178845,0.33058,0.164799
0.7300000190734863,-1.961992,0.406463,-17.301024,0.18103,0.366406,0.167077
0.7339999675750732,-1.921036,0.416637,-17.61065,0.18108,0.402481,0.170996
0.7379999160766602,-1.906146,0.460344,-17.936554,0.186762,0.435257,0.175564
0.7420001029968262,-1.962366,0.463433,-17.917768,0.191575,0.469575,0.178438
0.7460000514984131,-1.913121,0.375652,-17.548304,0.18766,0.487907,0.180079
0.75,-1.852002,0.262315,-17.276206,0.186751,0.495917,0.179778
0.7539999485015869,-1.88324,0.411277,-17.591412,0.21616,0.503341,0.180642
0.7590000629425049,-1.936097,0.411385,-17.466148,0.229545,0.515278,0.182902
0.7639999389648438,-1.802315,0.277814,-17.039246,0.223122,0.510458,0.186435
0.7680001258850098,-1.796279,0.529818,-17.505204,0.265283,0.506773,0.191131
0.7720000743865967,-2.107519,0.622063,-18.523212,0.312344,0.542551,0.19862
0.7760000228881836,-1.571405,0.100814,-16.755388,0.221049,0.505634,0.205052
0.7799999713897705,-1.647052,0.1832,-16.865024,0.244132,0.501557,0.204465
0.7839999198913574,-2.108067,0.269533,-16.922766,0.250271,0.551358,0.21019
0.7880001068115234,-1.884082,0.492316,-17.104382,0.269657,0.538857,0.217672
0.7920000553131104,-1.926324,0.826171,-17.718202,0.326323,0.536883,0.226187
0.7960000038146973,-2.022704,0.527518,-17.514276,0.309569,0.535192,0.234179
0.7999999523162842,-2.062229,0.582386,-17.469722,0.296251,0.540445,0.243463
0.8050000667572021,-0.333617,6.902773,-52.584872,0.940926,0.55325,0.305179
0.809999942779541,-0.984018,2.505151,-32.713128,0.431707,0.420947,0.266962
0.814000129699707,-2.562151,1.575795,-26.327096,0.166396,0.584731,0.259122
0.818000078201294,-1.818551,2.081691,-28.478578,0.147583,0.490462,0.245012
0.8220000267028809,-1.289092,2.874465,-35.477788,0.236261,0.513825,0.251718
0.8259999752044678,-1.901283,2.236734,-29.324312,0.197477,0.5549,0.242714
0.8299999237060547,-2.151284,1.363642,-18.768858,0.182493,0.586638,0.234311
0.8340001106262207,-2.109708,1.254097,-19.465264,0.22727,0.611956,0.241939
0.8380000591278076,-2.166698,1.089368,-17.63051,0.253247,0.598746,0.24818
0.8420000076293945,-2.367515,0.629321,-13.120197,0.237029,0.602625,0.246796
0.8450000286102295,-2.11686,0.38696,-11.007929,0.225929,0.566133,0.24196
0.8489999771118164,-1.895728,0.052385,-10.558883,0.217781,0.497217,0.228064
0.8550000190734863,-2.091274,-0.340267,-8.827924,0.222471,0.422634,0.200653
0.8589999675750732,-2.242363,-0.664931,-8.181047,0.191016,0.377125,0.189417
0.8640000820159912,-2.603189,-0.857522,-7.150887,0.157587,0.372157,0.182531
0.8680000305175781,-2.859493,-0.797754,-6.794275,0.140501,0.390622,0.180467
0.871999979019165,-2.74154,-0.756334,-6.843713,0.133354,0.362142,0.177341
0.875999927520752,-2.782927,-0.826396,-7.273178,0.11692,0.323606,0.171284
0.880000114440918,-3.049902,-0.771199,-7.734047,0.105368,0.316277,0.166916
0.8840000629425049,-2.984293,-0.673161,-8.278156,0.096073,0.285343,0.162287
0.8870000839233398,-2.796687,-0.637107,-8.585702,0.090513,0.246181,0.157849
0.8910000324249268,-2.874674,-0.714425,-9.032836,0.068983,0.218446,0.148632
0.8949999809265137,-2.968058,-0.635345,-9.635451,0.065214,0.199932,0.140436
0.9010000228881836,-2.987353,-0.522589,-10.171543,0.060965,0.144367,0.129356
0.9049999713897705,-3.044751,-0.603095,-10.658146,0.045725,0.117414,0.121204
0.9100000858306885,-3.101684,-0.594928,-11.11654,0.034868,0.096534,0.114303
0.9140000343322754,-3.169282,-0.529049,-11.33196,0.041074,0.086091,0.108464
0.9179999828338623,-2.978787,-0.634877,-11.735454,0.030163,0.044943,0.102247
0.9219999313354492,-3.001531,-0.671158,-11.927186,0.036477,0.028977,0.099101
0.9260001182556152,-2.923969,-0.712541,-12.467274,0.041391,0.00914,0.096236
0.9290001392364502,-2.950788,-0.745216,-12.693008,0.046034,0.020925,0.094834
0.9330000877380371,-2.784984,-0.846516,-12.716232,0.050217,0.002964,0.094601
0.937000036239624,-3.015509,-0.844544,-12.69176,0.053875,0.059122,0.099503
0.9409999847412109,-2.033102,-0.950559,-13.554922,0.063079,-0.035517,0.096642
0.9449999332427979,-2.32547,-1.154171,-13.871205,0.068548,-0.046313,0.089768
0.9490001201629639,-3.021662,-1.11602,-14.146214,0.061933,0.04052,0.095627
0.9549999237060547,-2.901632,-0.952365,-14.487336,0.064603,0.149546,0.108013
0.9590001106262207,-2.614629,-0.979271,-14.598117,0.075052,0.173437,0.110353
0.9639999866485596,-2.501545,-0.991263,-14.847421,0.086709,0.182122,0.111109
0.9679999351501465,-2.357766,-0.997555,-15.142334,0.092702,0.171474,0.112067
0.9709999561309814,-2.255102,-1.017501,-15.365125,0.090836,0.164428,0.112477
0.9750001430511475,-2.254886,-0.935911,-15.583438,0.107304,0.164092,0.111663
0.9790000915527344,-2.49659,-0.825635,-15.600192,0.125938,0.19905,0.114016
0.9830000400543213,-2.702367,-0.675085,-15.556183,0.147346,0.25353,0.118658
0.9869999885559082,-2.649167,-0.652887,-15.66935,0.154501,0.280671,0.122502
0.9909999370574951,-2.49268,-0.72119,-15.855775,0.149669,0.276561,0.120543
0.9950001239776611,-2.505726,-0.715501,-16.032159,0.14177,0.275035,0.117643
1.000999927520752,-2.4712,-0.601209,-16.167534,0.132003,0.274468,0.112353
1.005000114440918,-2.459661,-0.56673,-16.142046,0.127494,0.267294,0.108065
1.0099999904632568,-2.575634,-0.351965,-16.335198,0.141762,0.268514,0.106004
1.0130000114440918,-2.673698,-0.308588,-16.198189,0.146823,0.275884,0.107115
1.0169999599456787,-2.326081,-0.503141,-15.848388,0.12821,0.221419,0.104299
1.0209999084472656,-2.537145,-0.270848,-16.097058,0.149402,0.196451,0.100067
1.0250000953674316,-2.972982,-0.091506,-16.298938,0.178192,0.224818,0.104368
1.0290000438690186,-2.856735,0.127099,-16.785064,0.206618,0.219869,0.108954
1.0329999923706055,-2.77606,0.002228,-16.637769,0.20181,0.201373,0.11624
1.0369999408721924,-2.910882,-0.051811,-16.732711,0.194082,0.195926,0.118717
1.0410001277923584,-3.122373,0.209581,-17.514054,0.228687,0.219428,0.125524
1.0450000762939453,-2.648674,-0.085182,-17.046488,0.203323,0.169604,0.128562
1.0490000247955322,-2.841101,-0.020003,-17.81693,0.224064,0.157791,0.12375
1.0540001392364502,-3.107586,-0.056916,-17.641008,0.206322,0.176914,0.133795
1.058000087738037,-3.284854,0.211653,-18.127832,0.229408,0.206036,0.139111
1.062999963760376,-3.162762,0.017008,-17.747492,0.218788,0.195393,0.143985
1.066999912261963,-3.206558,0.031817,-18.680872,0.208086,0.174283,0.146938
1.071000099182129,-3.330364,0.209853,-19.16952,0.230844,0.18581,0.155519
1.0750000476837158,-3.014313,0.147329,-19.771892,0.20103,0.166175,0.157631
1.0789999961853027,-3.054995,0.343229,-20.1614,0.183712,0.169969,0.145327
1.0829999446868896,-3.446406,0.48638,-19.552574,0.211231,0.218144,0.145438
1.0870001316070557,-3.455054,0.448604,-19.903286,0.180932,0.254424,0.157835
